0,-637,-4,-1.28
1,-637,0,0.72
2,-638,-1,0.72
3,-638,-1,0.72
5,-639,0,0.72
6,-639,3,2.69
7,-639,2,2.66
8,-639,2,2.63
10,-639,0,2.6
11,-639,2,-0.39
12,-639,3,-0.38
13,-639,-2,-0.37
15,-639,0,-0.36
16,-639,-3,0.64
17,-639,0,0.64
18,-639,-3,0.64
20,-639,-2,0.64
21,-639,3,-0.37
22,-639,-21,-0.38
23,-639,-25,-0.39
25,-640,-13,-0.4
26,-640,-12,-3.39
27,-640,17,-3.38
28,-641,15,-3.37
30,-641,17,-3.36
31,-642,18,0.64
32,-643,10,0.64
33,-643,7,0.64
35,-644,3,0.64
36,-645,-1,-1.36
37,-646,-3,-1.36
38,-647,-32,-1.36
40,-648,-24,-1.36
41,-649,-14,-3.33
42,-650,13,-3.3
43,-651,15,-3.27
45,-652,18,-3.24
46,-653,18,-2.2
47,-653,9,-2.16
48,-654,2,-2.12
50,-654,-2,-2.08
51,-655,-5,-0.08
52,-655,-3,-0.08
53,-656,-22,-0.08
55,-656,-19,-0.08
56,-656,-12,-1.07
57,-656,20,-1.06
58,-657,17,-1.05
60,-657,14,-1.04
61,-657,11,-2.01
62,-658,12,-1.98
63,-658,6,-1.95
65,-658,1,-1.92
66,-659,-8,-3.87
67,-660,-4,-3.82
68,-660,-33,-3.77
70,-661,-25,-3.72
71,-662,-14,-0.68
72,-663,20,-0.64
73,-663,14,-0.6
75,-664,16,-0.56
76,-664,11,-2.53
77,-665,8,-2.5
78,-665,4,-2.47
80,-666,3,-2.44
81,-666,-3,-1.43
82,-666,-1,-1.42
83,-666,-25,-1.41
85,-667,-26,-1.4
86,-667,-10,-0.38
87,-667,24,-0.36
88,-667,21,-0.34
90,-667,10,-0.32
91,-668,13,-2.28
92,-668,10,-2.24
93,-668,4,-2.2
95,-669,2,-2.16
96,-669,-3,-2.12
97,-670,-5,-2.08
98,-670,-33,-2.04
100,-670,-26,-2
101,-669,-11,-0.98
102,-669,13,-0.96
103,-669,9,-0.94
105,-668,11,-0.92
106,-668,11,-1.89
107,-667,5,-1.86
108,-667,6,-1.83
110,-666,-1,-1.8
111,-666,1,-2.76
112,-665,-6,-2.72
113,-665,-26,-2.68
115,-664,-22,-2.64
116,-663,-16,-1.62
117,-663,21,-1.6
118,-662,18,-1.58
120,-662,13,-1.56
121,-661,12,-1.54
122,-661,13,-1.52
123,-660,7,-1.5
125,-660,-4,-1.48
126,-660,-6,-1.44
127,-660,-40,-1.4
128,-659,-23,-1.36
130,-659,-19,-1.32
131,-658,-11,-2.25
132,-658,-6,-2.18
133,-658,-3,-2.11
135,-658,6,-2.04
136,-657,10,-2
137,-657,3,-1.96
138,-657,5,-1.92
140,-657,10,-1.88
141,-657,5,-1.83
142,-657,5,-1.78
143,-657,-2,-1.73
145,-656,4,-1.68
146,-656,4,-1.64
147,-656,-3,-1.6
148,-656,2,-1.56
150,-655,-7,-1.52
151,-655,4,-1.51
152,-654,2,-1.5
153,-654,-4,-1.49
155,-653,7,-1.48
156,-652,2,-3.41
157,-651,-18,-3.34
158,-650,2,-3.27
160,-649,0,-3.2
161,-648,9,0.81
162,-647,8,0.82
163,-646,-9,0.83
165,-646,3,0.84
166,-645,3,-2.14
167,-644,5,-2.12
168,-644,-1,-2.1
170,-644,1,-2.08
171,-643,-6,-1.06
172,-643,0,-1.04
173,-642,5,-1.02
175,-641,-2,-1
176,-641,5,0.03
177,-640,1,0.06
178,-639,-3,0.09
180,-639,-1,0.12
181,-638,-5,-2.83
182,-638,9,-2.78
183,-637,2,-2.73
185,-636,-1,-2.68
186,-636,4,-2.64
187,-635,2,-2.6
188,-634,2,-2.56
190,-634,6,-2.52
191,-633,4,-1.51
192,-632,2,-1.5
193,-631,3,-1.49
195,-630,-15,-1.48
196,-629,29,-1.44
197,-628,25,-1.4
198,-628,20,-1.36
200,-627,13,-1.32
201,-626,11,-2.29
202,-625,4,-2.26
203,-625,-30,-2.23
205,-624,-27,-2.2
206,-623,-22,-1.17
207,-623,-14,-1.14
208,-622,17,-1.11
210,-621,17,-1.08
211,-621,17,-3.02
212,-620,11,-2.96
213,-619,7,-3.89
215,-619,-28,-3.82
216,-618,-23,-3.77
217,-617,-10,-2.73
218,-617,10,-2.69
220,-616,14,-2.65
221,-615,6,-1.62
222,-615,9,-1.59
223,-614,10,-3.54
225,-613,-33,-3.49
226,-613,-24,-3.43
227,-612,-18,-3.37
228,-612,-7,-4.3
230,-611,20,-4.23
231,-611,20,-4.17
232,-610,19,-4.11
233,-610,17,-4.05
235,-609,13,-2.01
236,-609,6,-1.98
237,-609,7,-1.95
238,-609,3,-1.92
240,-608,-6,-1.89
241,-608,-2,-0.86
242,-608,-19,-0.83
243,-608,-33,-0.8
245,-608,-25,-0.77
246,-608,-16,1.24
247,-607,-18,1.25
248,-607,34,1.26
250,-606,29,1.27
251,-606,27,1.28
252,-605,17,-1.68
253,-605,-3,-1.64
255,-605,-18,-1.6
256,-604,-15,-1.57
257,-604,-17,-1.54
258,-604,-11,-1.51
260,-604,-5,-1.48
261,-603,2,-1.45
262,-603,3,-1.42
263,-603,2,-1.39
265,-603,11,-1.36
266,-602,-2,-1.33
267,-602,5,-1.3
268,-601,0,-1.27
270,-601,-1,-2.23
271,-600,1,-2.19
272,-600,1,-2.15
273,-599,1,-2.11
275,-598,3,-0.09
276,-597,-4,-0.07
277,-597,1,-0.05
278,-597,2,-0.03
280,-597,1,-0.01
281,-596,1,-1
282,-596,0,-0.99
283,-596,5,-0.98
285,-596,0,-0.97
286,-596,2,-1.91
287,-596,0,-1.85
288,-596,6,-1.79
290,-596,-1,-1.73
291,-596,-1,-0.71
292,-596,-4,-0.69
293,-596,-4,-0.67
295,-596,-2,-0.65
296,-596,1,-1.61
297,-596,2,-1.57
298,-595,2,-1.53
300,-595,1,-1.49
301,-595,0,-0.45
302,-595,-2,-0.41
303,-594,-2,-0.37
305,-594,3,-0.33
306,-594,0,-1.31
307,-594,4,-1.29
308,-594,-2,-1.27
310,-594,1,-1.25
311,-594,3,-0.24
312,-594,0,-0.23
313,-594,1,-0.22
315,-594,-2,-0.21
316,-594,-5,-0.19
317,-594,3,-0.17
318,-594,0,-0.15
320,-594,-3,-0.13
321,-594,4,-2.09
322,-594,3,-2.05
323,-594,3,-2.01
325,-594,4,-1.97
326,-594,-2,-1.94
327,-594,8,-1.91
328,-593,17,-1.88
330,-593,15,-1.85
331,-592,14,-2.8
332,-592,9,-2.75
333,-592,5,-3.69
335,-591,-32,-3.63
336,-591,-25,-3.59
337,-590,-6,0.41
338,-590,15,0.4
340,-590,12,0.39
341,-589,9,-0.61
342,-589,7,-0.6
343,-589,9,-0.59
345,-589,-25,-0.58
346,-588,-21,-0.56
347,-588,-20,-0.54
348,-588,-12,-3.51
350,-588,23,-3.48
351,-588,20,-3.45
352,-588,5,-3.42
353,-589,14,-1.42
355,-589,22,-1.42
356,-589,7,-1.42
357,-589,3,-1.42
358,-590,5,-1.42
360,-590,4,-1.4
361,-591,1,-1.38
362,-592,-22,-1.36
363,-593,-23,-1.34
365,-593,-23,-1.32
366,-594,-15,-3.27
367,-595,-6,-3.22
368,-595,21,-3.17
370,-596,21,-3.12
371,-596,19,-3.05
372,-597,16,-1
373,-597,11,-0.95
375,-597,1,-0.9
376,-597,6,-0.85
377,-598,4,-0.83
378,-598,-28,-1.8
380,-598,-21,-1.77
381,-598,-17,-1.74
382,-598,-16,-1.71
383,-598,-10,-1.68
385,-598,-6,-2.64
386,-598,8,-2.6
387,-597,2,-2.56
388,-597,4,-2.52
390,-597,5,-1.49
391,-597,0,-1.46
392,-596,-1,-1.43
393,-596,-2,-1.4
395,-596,-4,0.6
396,-595,2,0.6
397,-595,3,0.6
398,-595,2,0.6
400,-594,5,0.62
401,-594,6,-0.35
402,-594,4,-0.32
403,-594,3,-0.29
405,-594,3,-0.26
406,-594,2,-1.23
407,-594,4,-1.2
408,-594,-4,-1.17
410,-594,0,-1.14
411,-594,-1,-0.13
412,-594,-2,-0.12
413,-595,-2,-0.11
415,-595,-1,-0.1
416,-595,3,-0.08
417,-595,-2,-0.06
418,-595,-1,-0.04
420,-595,3,-0.02
421,-596,-4,-1
422,-596,-1,-0.98
423,-596,3,-0.96
425,-596,3,-0.94
426,-596,3,-1.9
427,-596,-4,-1.86
428,-596,-4,-1.82
430,-596,1,-1.78
431,-596,2,-0.76
432,-596,-6,-0.74
433,-596,6,-0.72
435,-596,-2,-0.7
436,-596,3,0.32
437,-595,3,0.34
438,-595,3,0.36
440,-594,-6,0.38
441,-593,2,-0.59
442,-593,4,-0.56
443,-592,2,-0.53
445,-591,-3,-0.5
446,-590,2,2.48
447,-590,-3,2.46
448,-590,31,2.44
450,-589,18,2.42
451,-589,19,-0.57
452,-589,6,-0.56
453,-589,-7,-0.55
455,-589,-28,-0.54
456,-589,-26,-0.54
457,-588,-17,-0.54
458,-588,12,-0.55
460,-588,10,-0.56
461,-587,11,-1.56
462,-587,11,-1.52
463,-586,15,-0.49
465,-586,-13,-0.46
466,-585,-21,-0.44
467,-585,-18,-0.42
468,-584,-12,-0.4
470,-584,7,-0.38
471,-583,25,-0.36
472,-583,26,-0.34
473,-583,-28,-0.35
475,-583,18,2.61
476,-582,13,2.57
477,-582,15,2.53
478,-582,5,2.51
480,-581,2,2.49
481,-581,3,0.49
482,-581,-9,0.49
483,-580,-23,0.49
485,-580,-23,0.49
486,-579,-22,-0.5
487,-578,-7,-0.49
488,-578,25,-0.48
490,-577,19,-0.47
491,-577,19,-0.48
492,-576,12,2.48
493,-576,16,2.44
495,-576,9,2.4
496,-576,4,2.36
497,-576,0,2.34
498,-576,1,-0.65
500,-576,-3,-0.64
501,-576,-31,-0.63
502,-576,-27,-0.62
503,-576,-17,-0.62
505,-576,-8,0.37
506,-576,-9,0.36
507,-576,-4,0.35
508,-575,14,0.34
510,-575,4,0.32
511,-575,1,0.3
512,-575,0,0.28
513,-575,2,0.26
515,-575,4,0.25
516,-575,3,-1.74
517,-574,3,-1.73
518,-574,-2,-1.72
520,-574,5,-1.69
521,-573,2,0.32
522,-573,-2,0.33
523,-574,-1,0.34
525,-574,0,0.35
526,-574,-6,-0.64
527,-574,-3,-0.63
528,-574,1,-0.62
530,-573,2,-0.61
531,-573,1,-0.61
532,-573,0,-0.61
533,-573,-4,-0.61
535,-573,1,-0.61
536,-573,4,-1.59
537,-573,1,-1.57
538,-573,4,-1.55
540,-573,-3,-1.53
541,-572,4,-0.52
542,-572,4,-0.51
543,-572,-2,-0.5
545,-571,3,-0.49
546,-571,2,-2.47
547,-571,4,-2.45
548,-571,-4,-2.43
550,-571,1,-2.41
551,-571,3,-1.41
552,-571,-13,-1.41
553,-571,3,-1.41
555,-571,2,-1.41
556,-571,4,-2.39
557,-571,0,-2.37
558,-571,0,-2.35
560,-570,2,-2.33
561,-570,-1,-3.29
562,-569,5,-3.25
563,-569,1,-3.21
565,-569,-1,-3.17
566,-570,2,-0.17
567,-570,0,-0.17
568,-570,27,-0.17
570,-571,16,-0.17
571,-572,12,-3.11
572,-573,13,-3.05
573,-574,8,-3.98
575,-575,-26,-3.91
576,-577,-25,-3.87
577,-578,-25,-3.83
578,-579,11,-3.79
580,-581,12,-1.77
581,-582,12,-1.75
582,-583,7,-1.73
583,-585,8,-3.69
585,-586,-34,-3.65
586,-588,-13,-3.62
587,-590,-18,-3.59
588,-591,-17,-4.54
590,-593,22,-4.49
591,-595,30,-4.44
592,-597,-25,-4.39
593,-599,26,-3.35
595,-601,21,-3.31
596,-603,18,-3.27
597,-606,18,-3.23
598,-608,4,-3.19
600,-610,9,-4.11
601,-613,5,-4.03
602,-615,-34,-3.95
603,-617,-27,-3.87
605,-619,-23,-3.79
606,-622,-12,-2.74
607,-624,-4,-2.69
608,-626,27,-2.64
610,-627,26,-2.59
611,-629,16,-2.55
612,-631,16,-0.53
613,-632,14,-0.51
615,-633,4,-0.49
616,-634,2,-0.47
617,-635,-2,-0.42
618,-635,-4,-1.36
620,-635,-3,-1.3
621,-634,-38,-1.24
622,-634,-24,-1.18
623,-633,-21,-1.15
625,-632,-8,-1.12
626,-630,26,-1.09
627,-629,19,-1.06
628,-628,-9,-1.03
630,-626,-5,-0.99
631,-624,20,-0.95
632,-622,18,-0.91
633,-620,7,-0.87
635,-617,4,-0.83
636,-615,-27,-1.78
637,-612,-23,-1.73
638,-610,-10,-1.68
640,-607,-9,-1.63
641,-604,-3,-0.61
642,-600,-6,-0.59
643,-597,2,-0.57
645,-593,1,-0.55
646,-589,2,-4.47
647,-585,-2,-4.39
648,-581,1,-4.31
650,-577,1,-4.23
651,-572,3,-2.18
652,-568,1,-2.13
653,-564,0,-2.08
655,-560,-1,-2.03
656,-556,6,-0.99
657,-553,-2,-0.95
658,-549,2,-0.91
660,-547,0,-0.87
661,-544,-2,-2.82
662,-541,-1,-2.77
663,-539,3,-2.72
665,-537,5,-2.67
666,-535,3,0.36
667,-533,5,0.39
668,-532,-5,0.42
670,-531,-1,0.45
671,-530,6,-0.53
672,-529,-14,-0.51
673,-529,7,-0.49
675,-528,-1,-0.47
676,-528,2,-0.44
677,-528,1,-0.41
678,-528,4,-0.38
680,-528,1,-0.35
681,-528,4,2.64
682,-529,2,2.63
683,-529,-6,2.62
685,-530,-2,2.61
686,-531,-1,-1.37
687,-533,-1,-1.35
688,-534,2,-1.33
690,-536,2,-1.31
691,-537,2,0.72
692,-538,-5,0.75
693,-539,-1,0.78
695,-540,-1,0.81
696,-541,1,1.8
697,-542,2,1.79
698,-542,4,1.77
700,-542,-1,1.75
701,-542,1,0.74
702,-541,43,0.73
703,-541,22,0.72
705,-540,10,2.71
706,-539,4,2.7
707,-538,8,2.69
708,-536,3,3.65
710,-534,-32,3.61
711,-532,-28,3.57
712,-530,-1,1.55
713,-527,11,1.52
715,-525,11,4.46
716,-522,7,4.4
717,-520,7,4.34
718,-517,2,2.31
720,-515,-13,2.28
721,-513,-28,2.25
722,-510,-24,2.22
723,-508,-18,1.2
725,-506,17,1.17
726,-503,14,1.14
727,-501,-20,1.11
728,-499,30,1.08
730,-497,28,1.05
731,-496,19,1.03
732,-494,16,1.01
733,-493,4,0.99
735,-491,8,2.95
736,-490,1,2.91
737,-490,-3,2.89
738,-489,-38,2.87
740,-489,-31,2.85
741,-489,-23,2.83
742,-489,-13,2.81
743,-489,25,2.78
745,-489,26,2.75
746,-490,19,2.72
747,-491,14,1.7
748,-491,15,1.68
750,-492,7,1.66
751,-492,-1,1.64
752,-493,-3,1.62
753,-494,-13,2.59
755,-495,-26,2.56
756,-495,-22,2.53
757,-496,-17,2.5
758,-496,-14,2.47
760,-497,-6,0.46
761,-497,-8,0.44
762,-498,3,0.42
763,-498,7,0.4
765,-498,7,3.35
766,-498,5,3.31
767,-498,-1,3.27
768,-498,6,3.23
770,-498,2,3.19
771,-498,0,2.12
772,-498,3,2.05
773,-498,-3,1.98
775,-499,0,1.91
776,-499,3,-1.11
777,-499,2,-1.13
778,-500,2,-1.15
780,-500,-4,-1.17
781,-501,1,0.8
782,-501,3,0.77
783,-501,-2,0.74
785,-502,4,0.71
786,-502,4,0.66
787,-502,-2,0.61
788,-503,-5,0.56
790,-503,1,0.51
791,-503,5,1.48
792,-503,0,1.45
793,-503,1,1.42
795,-503,2,1.39
796,-503,5,-0.63
797,-503,5,-0.65
798,-503,0,-0.67
800,-503,2,-0.69
801,-503,-2,-0.71
802,-502,-5,-0.73
803,-502,2,-0.75
805,-501,-3,-0.77
806,-501,1,-0.76
807,-500,-12,-0.75
808,-500,-8,-0.74
810,-500,2,-0.73
811,-499,2,-0.76
812,-499,2,-0.79
813,-499,2,-0.82
815,-499,6,-0.85
816,-499,-2,-2.84
817,-499,4,-2.83
818,-498,2,-2.82
820,-498,1,-2.81
821,-499,7,-1.8
822,-499,26,-1.79
823,-499,30,-1.78
825,-500,14,-0.78
826,-502,13,-0.79
827,-504,4,-0.8
828,-507,-4,-0.81
830,-512,-31,-0.8
831,-519,-29,-0.79
832,-525,-22,-3.75
833,-532,20,-3.7
835,-540,14,-3.65
836,-547,15,-2.61
837,-554,9,-2.59
838,-559,9,-3.56
840,-563,-16,-3.5
841,-566,-34,-3.44
842,-567,-21,-3.38
843,-563,-18,-3.34
845,-556,9,-3.3
846,-546,30,-3.26
847,-533,23,-3.22
848,-518,26,-3.19
850,-496,-9,-1.18
851,-470,20,-1.17
852,-439,-12,-1.16
853,-405,-25,-1.15
855,-365,-18,-2.13
856,-320,-18,-2.11
857,-271,-13,-2.09
858,-221,2,-2.07
860,-169,-2,-2.03
861,-111,3,-4.96
862,-49,1,-4.89
863,15,30,-4.82
865,81,26,-4.75
866,147,16,-4.68
867,216,11,-1.64
868,285,12,-1.6
870,353,4,-1.56
871,421,1,-1.52
872,484,-4,-1.49
873,544,4,-1.46
875,599,-3,-1.43
876,650,-34,-1.4
877,697,-33,-1.37
878,738,-21,-1.33
880,774,-16,-1.29
881,805,-3,-1.25
882,831,2,-1.21
883,852,3,-1.17
885,867,9,-1.15
886,876,-1,-1.13
887,880,5,-1.11
888,880,7,-1.09
890,872,2,-0.05
891,858,2,-0.01
892,840,5,0.03
893,817,-1,0.07
895,791,-1,0.11
896,760,1,1.13
897,725,-3,1.15
898,687,4,1.17
900,647,4,1.19
901,603,1,-0.8
902,555,-3,-0.79
903,506,4,-0.78
905,456,4,-0.77
906,404,2,-0.74
907,351,4,-0.71
908,297,3,-0.68
910,243,2,-0.65
911,189,-1,0.37
912,135,-1,0.39
913,82,-4,0.41
915,30,2,0.43
916,-20,-4,-0.53
917,-70,-1,-0.49
918,-119,-3,-0.45
920,-165,4,-0.41
921,-210,6,1.59
922,-253,5,1.59
923,-295,2,1.59
925,-334,4,1.59
926,-371,-1,-1.38
927,-406,-4,-1.35
928,-439,-1,-1.32
930,-470,-2,-1.29
931,-498,1,-0.27
932,-525,-3,-0.25
933,-549,-3,-0.23
935,-571,2,-0.21
936,-591,2,-0.19
937,-609,3,-0.17
938,-625,2,-0.15
940,-639,0,-0.13
941,-651,2,-1.12
942,-662,34,-1.11
943,-671,25,-1.1
945,-679,19,-1.09
946,-686,11,-2.06
947,-691,6,-2.03
948,-696,-2,-2
950,-700,0,-1.96
951,-702,-4,-1.92
952,-704,-11,-1.88
953,-705,-33,-1.84
955,-706,-20,-1.8
956,-705,-16,2.2
957,-704,-8,2.17
958,-703,-7,2.14
960,-701,28,2.11
961,-698,29,-0.88
962,-695,19,-0.87
963,-692,10,-0.87
965,-688,12,-0.87
966,-684,4,1.11
967,-680,1,1.09
968,-676,-36,1.07
970,-672,-19,1.05
971,-668,-17,1.03
972,-663,-13,1.01
973,-659,16,0.99
975,-654,15,1.98
976,-649,16,1.97
977,-644,16,1.96
978,-638,9,1.95
980,-633,-28,1.93
981,-628,-13,1.91
982,-622,-16,1.89
983,-617,12,1.87
985,-611,8,-0.13
986,-605,8,-0.16
987,-600,10,-0.19
988,-594,9,0.77
990,-589,-17,0.73
991,-583,-35,0.69
992,-578,-24,0.68
993,-572,-13,3.64
995,-567,23,3.6
996,-562,21,3.56
997,-558,25,3.52
998,-553,23,2.49
1000,-549,22,2.46
1001,-545,7,2.43
1002,-542,1,2.4
1003,-539,-20,2.37
1005,-536,-31,1.35
1006,-533,-19,1.33
1007,-531,-18,1.31
1008,-528,-14,1.29
1010,-526,0,4.24
1011,-524,-3,4.19
1012,-522,4,4.14
1013,-520,6,4.09
1015,-518,0,4.05
1016,-517,6,3.02
1017,-515,-1,2.99
1018,-513,5,2.96
1020,-511,2,2.93
1021,-510,5,1.92
1022,-508,2,1.91
1023,-506,0,1.9
1025,-504,3,1.89
1026,-502,2,1.86
1027,-500,-3,-0.15
1028,-498,5,-0.16
1030,-496,-4,-0.17
1031,-495,-2,-0.18
1032,-493,0,-0.19
1033,-491,3,-0.2
1035,-490,-4,-0.21
1036,-489,0,-0.21
1037,-487,3,-0.21
1038,-486,0,-0.21
1040,-485,-1,-0.21
1041,-484,-3,-0.22
1042,-482,1,-0.23
1043,-481,0,-0.24
1045,-480,5,-0.25
1046,-478,6,-0.24
1047,-477,5,-0.23
1048,-475,-2,-0.22
1050,-474,-3,-2.19
1051,-472,-1,-2.19
1052,-471,3,-2.19
1053,-470,0,-2.19
1055,-469,-1,-2.19
1056,-468,0,-2.18
1057,-467,1,-2.17
1058,-467,0,-2.16
1060,-466,-3,-0.17
1061,-465,-1,-0.18
1062,-464,-5,-0.19
1063,-463,0,-0.2
1065,-462,-1,-2.19
1066,-462,1,-2.19
1067,-461,4,-2.19
1068,-460,5,-2.19
1070,-459,-4,0.78
1071,-458,2,0.74
1072,-458,-3,0.7
1073,-457,1,0.66
1075,-457,1,0.62
1076,-456,2,0.58
1077,-456,3,0.54
1078,-455,2,0.5
1080,-454,0,0.46
1081,-454,-2,0.46
1082,-453,31,0.46
1083,-452,28,0.46
1085,-452,14,0.46
1086,-451,15,0.43
1087,-450,-1,0.4
1088,-450,-28,0.37
1090,-449,-25,-2.63
1091,-449,-15,-2.61
1092,-448,5,-2.59
1093,-448,39,-2.57
1095,-447,8,-2.55
1096,-447,15,-2.53
1097,-447,6,-2.51
1098,-446,3,-1.5
1100,-447,-27,-1.48
1101,-447,-33,-1.46
1102,-447,-15,-0.45
1103,-447,15,-0.44
1105,-447,12,-2.41
1106,-447,6,-2.38
1107,-447,11,-2.35
1108,-447,8,-2.32
1110,-446,-18,-2.31
1111,-446,-28,-2.3
1112,-445,-23,-2.29
1113,-445,-19,0.7
1115,-445,16,0.69
1116,-444,25,0.68
1117,-444,26,0.67
1118,-444,19,-2.28
1120,-444,13,-2.23
1121,-444,12,-2.18
1122,-444,1,-2.13
1123,-443,-40,-2.09
1125,-443,-22,-1.06
1126,-443,-21,-1.03
1127,-443,-20,-1
1128,-443,-8,-0.97
1130,-443,-2,-0.95
1131,-443,4,-0.93
1132,-443,8,-0.91
1133,-443,3,-0.89
1135,-443,6,-0.84
1136,-442,9,-1.78
1137,-442,1,-1.72
1138,-442,3,-1.66
1140,-443,-3,-1.6
1141,-443,3,-1.55
1142,-443,-1,2.46
1143,-443,-2,2.47
1145,-444,0,2.48
1146,-444,2,2.48
1147,-445,0,1.49
1148,-445,4,1.5
1150,-445,0,1.51
1151,-446,6,1.52
1152,-446,0,0.52
1153,-446,-3,0.52
1155,-447,0,0.52
1156,-447,4,0.52
1157,-448,1,0.52
1158,-448,3,-0.47
1160,-449,3,-0.46
1161,-450,-1,-0.45
1162,-451,0,-0.44
1163,-452,-1,-0.43
1165,-453,-3,1.56
1166,-453,-1,1.55
1167,-454,-2,1.54
1168,-455,1,1.53
1170,-455,-4,1.52
1171,-456,-1,1.51
1172,-456,7,1.5
1173,-457,2,1.49
1175,-457,3,2.45
1176,-457,4,2.41
1177,-458,-1,2.37
1178,-458,0,2.33
1180,-458,-3,1.3
1181,-458,-2,1.27
1182,-459,3,1.24
1183,-459,1,1.21
1185,-459,2,2.19
1186,-459,-3,2.17
1187,-460,4,2.15
1188,-460,-1,2.13
1190,-461,-1,5.06
1191,-461,0,4.99
1192,-462,5,4.92
1193,-462,-4,4.85
1195,-463,5,0.85
1196,-464,4,0.85
1197,-464,4,0.85
1198,-465,3,0.85
1200,-466,-4,2.83
1201,-466,2,2.81
1202,-467,31,2.79
1203,-467,23,2.77
1205,-467,12,0.77
1206,-468,13,0.77
1207,-468,-5,0.77
1208,-468,-26,0.77
1210,-469,-23,2.75
1211,-469,-20,2.73
1212,-470,2,2.71
1213,-470,21,2.69
1215,-471,17,2.64
1216,-471,13,2.59
1217,-472,11,2.54
1218,-473,11,3.48
1220,-473,-28,3.42
1221,-474,-24,1.38
1222,-474,-13,1.34
1223,-475,13,1.31
1225,-475,12,2.27
1226,-476,7,2.23
1227,-476,7,2.2
1228,-476,14,4.15
1230,-477,-20,4.08
1231,-477,-27,4.01
1232,-477,-20,2.95
1233,-477,-13,2.89
1235,-477,13,2.83
1236,-477,21,2.77
1237,-477,21,2.71
1238,-477,21,0.7
1240,-478,18,0.69
1241,-478,10,0.68
1242,-478,2,0.67
1243,-478,-4,0.63
1245,-478,-9,4.55
1246,-479,-1,4.47
1247,-479,-29,4.39
1248,-479,-30,4.31
1250,-479,-19,5.23
1251,-479,-10,5.15
1252,-479,2,5.07
1253,-478,25,4.99
1255,-478,-10,4.91
1256,-477,27,2.85
1257,-477,22,2.79
1258,-476,14,2.73
1260,-475,-4,2.67
1261,-474,-22,2.6
1262,-472,-16,2.53
1263,-471,-10,2.46
1265,-470,-18,2.39
1266,-469,-7,2.32
1267,-468,2,3.28
1268,-467,1,3.24
1270,-465,5,3.2
1271,-464,4,3.16
1272,-462,-6,3.11
1273,-461,7,1.08
1275,-459,2,1.05
1276,-458,-1,1.02
1277,-456,-4,0.98
1278,-454,3,3.91
1280,-452,3,3.84
1281,-451,5,3.77
1282,-449,-2,3.7
1283,-447,6,3.62
1285,-445,6,4.53
1286,-443,3,4.44
1287,-441,0,4.35
1288,-439,0,4.26
1290,-437,1,3.2
1291,-436,-2,3.14
1292,-434,0,3.08
1293,-432,4,3.02
1295,-431,0,3.95
1296,-429,-9,3.88
1297,-428,3,3.81
1298,-427,0,3.74
1300,-425,-3,3.68
1301,-424,3,3.62
1302,-423,-1,3.56
1303,-422,2,3.5
1305,-420,1,6.4
1306,-419,-4,6.3
1307,-418,1,6.2
1308,-417,-6,6.1
1310,-416,3,6.01
1311,-415,-1,5.92
1312,-414,2,5.83
1313,-414,0,5.74
1315,-413,1,4.69
1316,-412,2,4.64
1317,-412,-1,4.59
1318,-411,2,4.54
1320,-411,1,4.45
1321,-411,-2,4.36
1322,-410,6,4.27
1323,-410,1,4.18
1325,-410,2,6.09
1326,-410,2,6
1327,-410,2,5.91
1328,-409,4,5.82
1330,-409,4,6.7
1331,-409,0,6.58
1332,-409,35,6.46
1333,-408,21,6.34
1335,-408,9,8.22
1336,-408,8,8.1
1337,-408,5,7.98
1338,-408,2,5.88
1340,-407,-30,5.78
1341,-407,-36,5.68
1342,-407,-24,5.58
1343,-407,19,5.49
1345,-407,14,5.4
1346,-406,10,5.29
1347,-406,11,5.18
1348,-406,11,7.05
1350,-406,2,6.93
1351,-406,-33,6.81
1352,-405,-32,6.69
1353,-405,-20,6.59
1355,-405,-17,6.49
1356,-405,27,6.39
1357,-406,-3,6.28
1358,-406,30,5.18
1360,-406,28,5.08
1361,-407,24,4.98
1362,-407,13,4.88
1363,-407,16,4.76
1365,-408,2,3.65
1366,-408,7,3.54
1367,-408,-2,3.43
1368,-408,-37,3.32
1370,-408,-29,3.25
1371,-409,-22,9.12
1372,-409,-16,8.99
1373,-410,22,8.86
1375,-410,21,8.74
1376,-411,23,8.62
1377,-412,12,5.53
1378,-413,-22,5.44
1380,-414,-20,5.35
1381,-415,-14,5.24
1382,-415,-16,5.13
1383,-416,-12,5.02
1385,-417,-3,4.91
1386,-417,0,4.8
1387,-418,9,4.69
1388,-418,2,4.58
1390,-419,4,4.47
1391,-419,5,4.36
1392,-419,3,4.26
1393,-420,4,6.14
1395,-420,1,6.02
1396,-421,-2,5.9
1397,-421,0,5.78
1398,-421,4,5.64
1400,-422,-1,5.5
1401,-422,-2,5.36
1402,-423,-1,5.22
1403,-423,-2,5.11
1405,-424,2,5
1406,-425,1,4.89
1407,-426,2,4.78
1408,-426,0,4.67
1410,-427,6,6.55
1411,-428,-3,6.43
1412,-429,32,6.31
1413,-430,27,6.19
1415,-431,20,2.1
1416,-432,12,2.01
1417,-433,-3,1.92
1418,-434,-19,1.83
1420,-435,-17,3.73
1421,-436,-19,3.63
1422,-437,-9,3.53
1423,-437,-9,3.43
1425,-437,-4,2.34
1426,-438,-2,2.25
1427,-438,1,2.16
1428,-438,0,2.07
1430,-438,2,2.01
1431,-438,-15,1.95
1432,-438,1,1.89
1433,-438,3,1.83
1435,-439,3,4.74
1436,-439,6,4.65
1437,-439,3,4.56
1438,-440,5,4.47
1440,-440,1,2.39
1441,-440,-2,2.31
1442,-440,3,2.23
1443,-440,1,2.15
1445,-440,1,2.07
1446,-441,-5,1.99
1447,-441,0,1.91
1448,-441,3,1.83
1450,-442,3,1.77
1451,-442,2,1.71
1452,-442,3,1.65
1453,-443,2,1.59
1455,-443,1,2.53
1456,-443,0,2.47
1457,-444,3,2.41
1458,-444,0,2.35
1460,-444,1,2.31
1461,-444,-1,2.27
1462,-444,-3,2.23
1463,-445,-1,2.17
1465,-445,0,1.12
1466,-445,1,1.07
1467,-446,29,1.02
1468,-446,16,0.97
1470,-447,17,1.91
1471,-447,4,1.85
1472,-448,5,0.8
1473,-448,1,0.77
1475,-448,-28,0.74
1476,-449,-24,-1.27
1477,-449,-11,-1.28
1478,-449,16,-1.29
1480,-449,14,0.68
1481,-450,5,0.65
1482,-450,7,4.58
1483,-450,8,4.5
1485,-451,-11,4.42
1486,-451,-31,4.34
1487,-452,-26,3.27
1488,-452,-13,3.2
1490,-452,-6,3.12
1491,-453,27,3.04
1492,-453,27,2.96
1493,-454,24,-0.09
1495,-454,22,-0.14
1496,-454,13,-0.13
1497,-455,10,-0.12
1498,-455,1,-0.11
1500,-455,-6,0.89
1501,-455,-3,0.89
1502,-455,-1,0.86
1503,-455,-37,0.83
1505,-455,-26,0.8
1506,-456,-22,-0.22
1507,-456,-6,-0.24
1508,-456,-4,-0.26
1510,-457,-5,-0.28
1511,-457,2,-1.29
1512,-458,5,-1.3
1513,-458,3,-1.31
1515,-459,1,-1.32
1516,-460,-12,-1.33
1517,-460,8,-0.35
1518,-461,4,-0.35
1520,-461,-1,-0.35
1521,-461,1,-0.35
1522,-462,1,0.64
1523,-462,2,0.63
1525,-463,4,0.62
1526,-463,0,0.61
1527,-464,2,0.6
1528,-465,-4,-2.38
1530,-465,3,-2.36
1531,-465,1,-2.34
1532,-466,2,-2.32
1533,-466,2,-2.3
1535,-467,-1,0.71
1536,-467,-2,0.72
1537,-467,-1,0.73
1538,-467,-2,0.74
1540,-467,4,1.7
1541,-468,3,1.66
1542,-468,1,1.62
1543,-468,5,1.58
1545,-469,0,0.57
1546,-469,-2,0.56
1547,-469,2,0.55
1548,-470,0,0.54
1550,-470,2,3.49
1551,-470,2,3.44
1552,-470,-1,3.39
1553,-470,1,3.34
1555,-469,5,1.31
1556,-469,0,1.28
1557,-469,3,1.25
1558,-469,3,1.22
1560,-468,3,1.22
1561,-468,0,1.22
1562,-469,-1,1.22
1563,-469,2,1.22
1565,-469,3,1.2
1566,-469,1,1.18
1567,-469,0,1.16
1568,-469,1,1.14
1570,-469,1,3.1
1571,-470,-3,3.06
1572,-470,1,3.02
1573,-471,1,2.98
1575,-471,36,0.96
1576,-472,30,0.94
1577,-472,19,0.92
1578,-473,14,0.9
1580,-473,9,2.87
1581,-474,1,2.84
1582,-475,-13,2.81
1583,-476,-38,2.78
1585,-477,-31,1.76
1586,-477,-21,1.74
1587,-478,0,1.72
1588,-479,24,1.7
1590,-479,16,1.67
1591,-480,17,1.64
1592,-480,18,0.62
1593,-481,0,0.6
1595,-481,-33,0.59
1596,-481,-24,-0.41
1597,-481,-12,-0.42
1598,-481,14,-0.43
1600,-481,5,-0.44
1601,-481,12,-0.47
1602,-481,15,3.46
1603,-481,9,3.39
1605,-481,-12,3.34
1606,-481,-23,3.29
1607,-481,-16,0.31
1608,-481,-11,0.33
1610,-481,17,0.35
1611,-481,21,0.37
1612,-481,24,0.38
1613,-481,15,-1.59
1615,-481,-21,-1.56
1616,-481,15,-1.53
1617,-481,8,-1.5
1618,-481,6,-1.5
1620,-481,-1,-1.5
1621,-481,-2,-1.5
1622,-482,-8,-1.5
1623,-482,-31,-1.5
1625,-483,-30,1.48
1626,-483,-17,1.46
1627,-484,-6,1.44
1628,-484,24,1.42
1630,-485,2,1.4
1631,-485,-5,0.38
1632,-486,33,0.36
1633,-486,20,0.34
1635,-486,16,0.32
1636,-486,6,0.29
1637,-487,-29,0.26
1638,-487,-14,0.23
1640,-488,-17,0.2
1641,-488,-23,0.17
1642,-489,-13,-0.84
1643,-490,-3,-0.85
1645,-490,-2,-0.86
1646,-491,4,-0.87
1647,-492,3,-0.87
1648,-493,0,0.12
1650,-494,1,0.11
1651,-495,5,0.1
1652,-496,3,0.09
1653,-497,3,-0.94
1655,-498,1,-0.97
1656,-499,2,-1
1657,-500,1,-1.03
1658,-502,4,-1.06
1660,-503,-4,-3.04
1661,-505,3,-3.02
1662,-506,-11,-3
1663,-508,3,-2.98
1665,-510,4,-0.97
1666,-512,2,-0.96
1667,-514,5,-0.95
1668,-516,6,-0.94
1670,-518,6,0.05
1671,-520,0,0.04
1672,-522,0,0.03
1673,-524,2,0.02
1675,-526,-3,-1.94
1676,-529,4,-1.9
1677,-531,1,-1.86
1678,-534,-1,-1.82
1680,-536,2,-0.81
1681,-539,0,-0.8
1682,-543,-3,-0.79
1683,-546,1,-0.78
1685,-549,0,-1.76
1686,-553,0,-1.74
1687,-556,0,-1.72
1688,-559,-1,-1.7
1690,-562,2,-0.69
1691,-565,4,-0.68
1692,-568,3,-0.67
1693,-570,1,-0.66
1695,-573,3,-0.63
1696,-575,-8,-0.6
1697,-576,-1,-0.57
1698,-578,1,-0.54
1700,-579,2,-0.53
1701,-580,4,-0.52
1702,-580,0,-0.51
1703,-580,2,-0.5
1705,-580,1,-2.45
1706,-579,2,-2.4
1707,-578,-3,-2.35
1708,-577,0,-2.3
1710,-576,35,-3.25
1711,-574,24,-3.2
1712,-572,23,-3.15
1713,-570,14,-3.1
1715,-568,8,-0.08
1716,-565,3,-0.06
1717,-562,3,-0.05
1718,-558,-44,-0.04
1720,-555,-27,0.96
1721,-550,-18,0.95
1722,-546,-17,0.94
1723,-542,33,0.93
1725,-537,17,-1.06
1726,-532,10,-1.05
1727,-528,9,-1
1728,-523,14,-0.95
1730,-518,-29,-0.9
1731,-514,-29,0.14
1732,-510,-17,0.15
1733,-506,15,0.16
1735,-502,8,1.16
1736,-498,5,1.16
1737,-495,10,1.16
1738,-492,11,1.14
1740,-489,-4,1.12
1741,-486,-27,1.1
1742,-483,-21,4.05
1743,-480,-16,4
1745,-478,7,3.95
1746,-475,20,3.9
1747,-473,18,3.85
1748,-471,20,2.81
1750,-469,-15,2.8
1751,-467,10,2.79
1752,-466,14,2.78
1753,-465,7,2.77
1755,-464,0,3.75
1756,-463,-25,3.72
1757,-463,-20,3.69
1758,-463,-10,3.66
1760,-463,-13,3.63
1761,-463,-9,3.6
1762,-463,-1,3.57
1763,-464,0,3.54
1765,-464,5,3.51
1766,-465,5,3.48
1767,-465,2,3.44
1768,-466,1,3.4
1770,-466,1,3.36
1771,-467,0,3.32
1772,-467,2,3.28
1773,-468,-2,3.25
1775,-468,-2,3.22
1776,-468,2,3.19
1777,-468,2,4.15
1778,-469,2,4.1
1780,-469,-2,4.05
1781,-469,0,4
1782,-469,-3,2.96
1783,-469,1,2.92
1785,-470,-4,2.86
1786,-470,5,2.8
1787,-470,1,2.74
1788,-470,2,4.66
1790,-470,4,4.6
1791,-470,0,4.54
1792,-470,4,4.48
1793,-470,0,4.42
1795,-470,-3,2.39
1796,-470,1,2.36
1797,-470,3,2.33
1798,-469,5,2.3
1800,-469,-3,4.23
1801,-469,-2,4.16
1802,-469,0,4.09
1803,-469,-3,4.02
1805,-469,-2,0.99
1806,-469,3,0.96
1807,-469,1,0.93
1808,-470,1,0.9
1810,-470,2,3.83
1811,-470,1,3.76
1812,-470,1,3.69
1813,-470,-4,3.62
1815,-471,4,1.58
1816,-471,-1,1.54
1817,-472,-2,1.5
1818,-473,4,1.46
1820,-474,3,0.43
1821,-476,1,0.4
1822,-478,-5,0.37
1823,-480,2,0.34
1825,-482,5,1.3
1826,-485,-2,1.26
1827,-487,0,1.22
1828,-489,4,1.18
1830,-492,33,-0.86
1831,-494,25,-0.9
1832,-497,19,-0.94
1833,-499,10,-0.98
1835,-501,6,-2.02
1836,-503,0,-2.06
1837,-505,1,-2.1
1838,-507,-40,-2.14
1840,-509,-27,-0.17
1841,-511,-19,-0.2
1842,-513,-15,-0.23
1843,-515,11,-0.26
1845,-517,18,-0.28
1846,-519,20,-0.3
1847,-520,11,-0.32
1848,-522,13,-0.34
1850,-524,-16,-0.38
1851,-525,-18,-1.41
1852,-526,-17,-1.44
1853,-528,15,-1.47
1855,-529,13,-2.49
1856,-530,5,-2.5
1857,-531,9,-1.52
1858,-532,7,-1.54
1860,-532,2,-1.55
1861,-533,-26,-1.56
1862,-533,-20,-2.56
1863,-534,-18,-2.56
1865,-534,20,-2.56
1866,-534,19,-2.56
1867,-535,16,-1.54
1868,-535,11,-1.52
1870,-536,14,-1.5
1871,-537,9,-1.48
1872,-538,-26,-1.46
1873,-538,-26,-1.45
1875,-539,-15,-1.44
1876,-540,-8,-1.43
1877,-541,-10,-1.42
1878,-542,-7,-1.41
1880,-543,1,-3.37
1881,-543,6,-3.33
1882,-544,5,-3.29
1883,-545,1,-3.25
1885,-546,-5,-1.23
1886,-546,0,-1.21
1887,-547,3,-1.19
1888,-547,2,-1.17
1890,-548,-1,-1.15
1891,-548,-12,-1.13
1892,-549,1,-1.11
1893,-549,6,-1.09
1895,-549,2,-1.07
1896,-550,3,-1.05
1897,-550,4,-1.03
1898,-550,6,-1.01
1900,-551,2,-0.99
1901,-551,-4,-0.97
1902,-551,0,0.05
1903,-551,0,0.07
1905,-552,6,0.09
1906,-552,3,0.11
1907,-553,1,0.12
1908,-554,0,0.13
1910,-555,3,0.14
1911,-556,2,0.15
1912,-557,3,0.16
1913,-559,0,0.19
1915,-561,1,-1.76
1916,-565,-2,-1.71
1917,-569,3,-1.66
1918,-574,-4,-1.61
1920,-580,-2,0.4
1921,-587,-1,0.41
1922,-594,1,0.42
1923,-602,0,0.43
1925,-610,0,2.44
1926,-619,1,2.45
1927,-627,-3,2.46
1928,-635,-2,2.47
1930,-643,3,0.47
1931,-649,2,0.47
1932,-654,-2,0.47
1933,-659,1,0.47
1935,-659,-2,-0.49
1936,-657,2,-0.45
1937,-652,1,-0.41
1938,-644,-2,-0.37
1940,-631,2,0.64
1941,-613,2,0.65
1942,-592,4,0.66
1943,-568,2,0.67
1945,-536,1,-1.31
1946,-499,0,-1.29
1947,-458,34,-1.27
1948,-413,25,-1.25
1950,-361,15,0.76
1951,-304,10,0.77
1952,-239,4,-0.21
1953,-169,-13,-0.19
1955,-95,-37,-0.19
1956,-20,-18,-0.19
1957,56,15,-0.19
1958,130,11,-1.18
1960,202,10,-1.18
1961,272,6,-1.18
1962,335,2,0.8
1963,392,10,0.78
1965,443,-22,0.78
1966,486,-32,1.77
1967,522,-21,1.76
1968,551,-11,1.75
1970,575,24,1.74
1971,593,26,1.73
1972,603,-10,1.72
1973,605,28,1.71
1975,602,22,1.7
1976,593,15,1.68
1977,580,3,1.66
1978,561,4,0.65
1980,536,0,0.63
1981,508,-2,0.61
1982,476,-13,0.6
1983,442,-33,0.59
1985,403,-21,0.58
1986,362,-16,0.57
1987,319,-5,0.55
1988,275,24,0.53
1990,230,16,0.51
1991,183,15,0.49
1992,135,16,0.48
1993,87,5,0.47
1995,39,1,0.46
1996,-8,-3,0.45
1997,-55,3,2.42
1998,-102,-2,2.39
2000,-147,1,2.36
2001,-191,-36,2.33
2002,-235,-24,1.31
2003,-278,-18,1.29
2005,-319,-12,1.25
2006,-358,-4,1.21
2007,-396,1,1.17
2008,-432,-1,0.14
2010,-467,7,0.13
2011,-500,4,0.12
2012,-532,-3,0.11
2013,-562,5,-0.89
2015,-590,-1,-0.89
2016,-616,2,-0.89
2017,-641,2,-0.89
2018,-664,-3,-0.89
2020,-685,1,1.09
2021,-705,5,1.07
2022,-723,-3,1.05
2023,-739,3,1.03
2025,-754,-3,-0.97
2026,-768,4,-0.97
2027,-780,1,-0.96
2028,-790,4,-0.95
2030,-800,0,-0.94
2031,-808,2,-0.93
2032,-815,3,-0.92
2033,-821,-7,-0.91
2035,-826,4,-0.9
2036,-829,3,-0.89
2037,-832,-12,-0.88
2038,-834,5,-0.87
2040,-835,1,-0.88
2041,-836,0,-0.89
2042,-837,6,-0.9
2043,-836,2,-0.91
2045,-836,2,0.09
2046,-835,1,0.09
2047,-834,0,0.09
2048,-833,1,0.09
2050,-831,-1,-0.88
2051,-829,-1,-0.85
2052,-827,-2,-0.82
2053,-825,-1,-0.79
2055,-822,-2,-1.77
2056,-820,1,-1.75
2057,-817,2,-1.73
2058,-814,4,-1.71
2060,-812,-5,0.28
2061,-809,1,0.27
2062,-807,3,0.26
2063,-804,0,0.25
2065,-802,0,0.25
2066,-799,5,0.25
2067,-796,32,0.25
2068,-794,18,0.25
2070,-791,11,-0.76
2071,-789,8,-0.77
2072,-786,7,-0.78
2073,-783,9,-0.79
2075,-781,-26,-0.78
2076,-778,-37,0.22
2077,-776,-13,0.21
2078,-773,13,0.2
2080,-771,9,-2.78
2081,-768,12,-2.76
2082,-766,8,0.23
2083,-763,4,0.21
2085,-760,3,0.19
2086,-758,-35,0.17
2087,-755,-20,0.17
2088,-752,-17,0.17
2090,-749,6,0.17
2091,-747,27,0.18
2092,-744,-5,1.18
2093,-741,0,1.18
2095,-738,23,1.18
2096,-735,22,1.18
2097,-733,14,1.18
2098,-730,5,2.17
2100,-728,6,2.16
2101,-725,7,2.15
2102,-723,7,2.14
2103,-721,-24,2.12
2105,-719,-23,0.12
2106,-717,-18,0.12
2107,-715,-13,0.12
2108,-713,21,0.12
2110,-711,20,0.12
2111,-709,18,0.12
2112,-707,14,0.12
2113,-705,14,0.12
2115,-703,9,0.12
2116,-701,2,0.12
2117,-700,-4,1.11
2118,-698,0,1.1
2120,-696,-6,1.09
2121,-695,-14,1.08
2122,-693,-29,1.09
2123,-692,-24,2.09
2125,-691,-16,2.09
2126,-690,8,2.09
2127,-688,16,2.08
2128,-687,-15,2.07
2130,-685,14,2.06
2131,-684,27,2.05
2132,-682,-16,2.04
2133,-680,-10,2.02
2135,-678,-10,1.01
2136,-677,-11,1
2137,-675,-7,0.99
2138,-673,-9,0.97
2140,-672,-3,-0.04
2141,-670,4,-0.05
2142,-668,6,-0.06
2143,-667,4,-0.07
2145,-665,2,1.92
2146,-664,-5,1.91
2147,-662,5,1.9
2148,-661,1,1.89
2150,-659,4,1.86
2151,-657,1,1.83
2152,-656,-1,1.8
2153,-654,-1,1.77
2155,-653,-3,-1.23
2156,-651,-2,-1.23
2157,-650,2,-1.23
2158,-649,0,-1.23
2160,-648,5,1.74
2161,-647,-1,1.71
2162,-645,2,1.68
2163,-644,0,1.65
2165,-643,1,-0.36
2166,-642,3,-0.37
2167,-641,-12,-0.38
2168,-640,4,-0.39
2170,-639,1,0.6
2171,-638,6,0.59
2172,-637,-2,0.58
2173,-636,1,0.57
2175,-635,-1,0.55
2176,-634,3,0.53
2177,-632,3,0.51
2178,-631,1,0.49
2180,-630,0,1.45
2181,-628,4,1.41
2182,-627,0,1.37
2183,-626,0,1.33
2185,-624,-3,2.3
2186,-623,3,2.27
2187,-621,0,2.24
2188,-620,2,2.21
2190,-619,2,2.18
2191,-617,1,2.15
2192,-616,-3,2.12
2193,-615,1,2.09
2195,-614,-1,1.06
2196,-613,-5,1.03
2197,-612,1,1
2198,-610,4,0.97
2200,-609,0,-1.04
2201,-608,3,-1.04
2202,-607,22,-1.04
2203,-607,31,-1.04
2205,-606,17,0.91
2206,-605,10,0.86
2207,-605,5,-0.15
2208,-604,-4,-0.16
2210,-603,-25,1.81
2211,-603,-24,1.78
2212,-602,-7,1.75
2213,-601,12,1.72
2215,-600,7,0.7
2216,-599,8,0.68
2217,-598,10,2.65
2218,-596,10,2.62
2220,-595,9,2.59
2221,-593,-30,2.56
2222,-592,-24,-0.44
2223,-591,-17,-0.43
2225,-589,-9,-0.42
2226,-588,28,-0.41
2227,-587,24,-0.4
2228,-586,17,-0.39
2230,-585,18,-0.4
2231,-585,4,-0.41
2232,-584,5,-0.42
2233,-583,-4,0.56
2235,-583,-6,0.54
2236,-582,-1,0.52
2237,-581,-6,0.5
2238,-581,-19,0.48
2240,-580,-26,0.46
2241,-579,-20,0.44
2242,-579,-7,0.43
2243,-578,7,0.42
2245,-578,24,0.41
2246,-577,22,0.4
2247,-577,19,0.39
2248,-577,17,0.39
2250,-578,9,0.39
2251,-578,2,0.39
2252,-578,0,-1.59
2253,-579,-16,-1.57
2255,-579,-28,-1.55
2256,-580,-20,-1.53
2257,-581,-18,-1.51
2258,-582,-15,0.49
2260,-583,-6,0.48
2261,-583,-5,0.47
2262,-584,0,0.46
2263,-585,4,0.45
2265,-586,2,0.43
2266,-587,2,0.41
2267,-587,0,0.39
2268,-588,0,0.37
2270,-588,1,-1.61
2271,-589,3,-1.59
2272,-589,1,-1.57
2273,-589,5,-1.55
2275,-590,3,-2.52
2276,-590,2,-2.49
2277,-591,-10,-2.46
2278,-591,-1,-2.43
2280,-592,4,-2.43
2281,-592,2,-2.43
2282,-593,4,-2.43
2283,-594,3,-2.43
2285,-594,-2,-3.39
2286,-595,2,-3.35
2287,-595,2,-3.31
2288,-596,3,-3.27
2290,-596,2,-1.27
2291,-597,0,-1.27
2292,-598,0,-1.27
2293,-598,-1,-1.27
2295,-599,-2,-2.25
2296,-599,2,-2.23
2297,-600,-3,-2.21
2298,-600,-2,-2.19
2300,-601,2,-5.14
2301,-602,2,-5.09
2302,-603,2,-5.04
2303,-604,4,-4.99
2305,-605,-1,-1.96
2306,-606,2,-1.93
2307,-607,-2,-1.9
2308,-608,-2,-1.87
2310,-608,1,-0.84
2311,-609,1,-0.81
2312,-610,1,-0.78
2313,-610,-2,-0.75
2315,-611,3,-0.72
2316,-611,0,-0.69
2317,-611,2,-0.66
2318,-610,3,-0.63
2320,-610,0,-2.59
2321,-610,0,-2.55
2322,-610,3,-2.51
2323,-610,2,-2.47
2325,-610,34,-1.46
2326,-610,26,-1.45
2327,-610,18,-1.44
2328,-610,18,-1.43
2330,-609,10,-0.41
2331,-609,-1,-0.39
2332,-608,2,-0.38
2333,-607,-44,0.62
2335,-606,-23,0.64
2336,-605,-21,0.66
2337,-604,-10,0.68
2338,-602,23,1.69
2340,-601,20,1.69
2341,-600,-3,1.69
2342,-598,12,1.71
2343,-597,8,1.73
2345,-596,7,1.75
2346,-594,-28,1.77
2347,-593,-28,1.76
2348,-591,-9,1.75
2350,-589,22,1.74
2351,-586,10,4.7
2352,-584,14,4.66
2353,-581,10,3.63
2355,-578,12,3.6
2356,-574,-27,3.57
2357,-571,-24,5.52
2358,-567,-19,5.48
2360,-563,22,5.44
2361,-559,15,5.4
2362,-555,11,5.36
2363,-551,15,5.32
2365,-546,12,5.28
2366,-542,9,5.24
2367,-537,-1,1.24
2368,-533,-2,1.24
2370,-529,5,1.24
2371,-524,5,1.24
2372,-521,-31,1.24
2373,-517,-24,5.2
2375,-513,-18,5.16
2376,-510,-17,5.12
2377,-507,22,5.06
2378,-504,-8,5.99
2380,-501,31,5.92
2381,-498,25,5.85
2382,-496,14,5.78
2383,-493,13,5.73
2385,-491,-21,5.68
2386,-489,-26,5.63
2387,-487,-20,5.58
2388,-484,-18,5.53
2390,-482,-10,5.48
2391,-480,-4,5.43
2392,-478,3,5.38
2393,-476,5,5.33
2395,-474,1,5.26
2396,-472,0,8.16
2397,-470,3,8.06
2398,-469,2,7.96
2400,-467,0,7.85
2401,-466,2,5.76
2402,-465,0,5.67
2403,-464,-7,5.58
2405,-462,1,5.49
2406,-461,3,5.4
2407,-460,1,5.31
2408,-459,1,5.22
2410,-458,2,5.12
2411,-456,3,5.02
2412,-455,3,4.92
2413,-454,-2,3.83
2415,-453,-3,3.76
2416,-452,1,3.69
2417,-452,-3,3.62
2418,-451,3,7.51
2420,-450,0,7.39
2421,-450,2,7.27
2422,-449,1,7.15
2423,-448,5,7.03
2425,-448,-2,6.88
2426,-447,2,6.73
2427,-447,4,6.58
2428,-447,-9,7.42
2430,-447,-1,7.29
2431,-447,3,7.16
2432,-448,-1,7.03
2433,-448,1,5.91
2435,-448,2,5.8
2436,-448,-1,5.69
2437,-448,2,5.58
2438,-448,4,5.47
2440,-448,0,5.36
2441,-448,1,5.25
2442,-448,0,5.14
2443,-448,-2,6.02
2445,-448,4,5.88
2446,-448,-1,5.74
2447,-448,1,5.6
2448,-448,-2,6.45
2450,-448,2,6.31
2451,-447,3,6.17
2452,-447,2,6.03
2453,-447,1,4.9
2455,-447,3,4.78
2456,-447,0,4.66
2457,-447,3,4.54
2458,-447,0,6.41
2460,-447,23,6.28
2461,-447,32,6.15
2462,-448,20,6.02
2463,-448,15,5.9
2465,-449,6,5.78
2466,-449,6,5.66
2467,-450,-3,5.54
2468,-451,-39,2.45
2470,-452,-21,2.36
2471,-453,-19,2.27
2472,-454,-21,2.18
2473,-455,19,5.06
2475,-456,9,4.94
2476,-457,16,4.85
2477,-457,9,1.79
2478,-458,16,1.72
2480,-459,-26,4.62
2481,-459,-17,4.52
2482,-460,-21,4.44
2483,-460,17,4.36
2485,-460,12,3.29
2486,-461,11,3.22
2487,-461,15,3.15
2488,-461,10,3.08
2490,-462,1,3.01
2491,-462,-24,1.95
2492,-462,-23,1.85
2493,-462,-15,1.75
2495,-462,-9,1.65
2496,-462,26,1.55
2497,-463,20,2.44
2498,-463,19,2.37
2500,-463,16,2.3
2501,-464,9,2.23
2502,-464,3,2.16
2503,-464,-30,-0.87
2505,-464,-35,-0.9
2506,-465,-20,-0.93
2507,-465,-15,-0.96
2508,-465,-5,0.99
2510,-465,-3,0.94
2511,-465,2,0.89
2512,-465,8,0.84
2513,-465,5,0.79
2515,-465,6,1.73
2516,-465,3,1.67
2517,-465,-2,1.61
2518,-465,2,1.55
2520,-465,1,1.49
2521,-466,-4,0.47
2522,-466,4,0.45
2523,-467,3,0.43
2525,-469,0,0.41
2526,-469,0,1.36
2527,-470,3,1.31
2528,-471,0,1.26
2530,-472,1,1.21
2531,-472,-1,1.16
2532,-473,-1,-1.86
2533,-474,2,-1.88
2535,-474,-3,-1.9
2536,-475,1,-1.92
2537,-476,1,-1.94
2538,-477,0,-1.97
2540,-478,2,-2
2541,-478,1,-2.03
2542,-479,1,-2.06
2543,-480,1,-0.07
2545,-481,-2,-0.08
2546,-481,2,-0.09
2547,-481,3,-0.1
2548,-482,2,-1.1
2550,-482,0,-1.1
2551,-482,0,-1.1
2552,-483,0,-1.1
2553,-483,-5,-1.09
2555,-483,0,-1.08
2556,-483,2,-1.07
2557,-484,2,-1.06
2558,-484,4,-1.06
2560,-484,2,-1.06
2561,-484,3,-1.06
2562,-485,4,-1.06
2563,-485,1,-2.05
2565,-485,-7,-2.04
2566,-485,-1,-2.03
2567,-485,1,-2.02
2568,-486,0,-1.01
2570,-486,1,-1
2571,-486,3,-0.99
2572,-486,0,-0.98
2573,-487,0,-1.95
2575,-487,-1,-1.92
2576,-487,0,-1.89
2577,-487,-2,-1.86
2578,-488,2,1.13
2580,-488,18,1.12
2581,-488,32,1.11
2582,-488,25,1.1
2583,-488,16,1.11
2585,-488,11,1.12
2586,-488,10,1.13
2587,-488,5,1.14
2588,-488,-35,3.13
2590,-488,-32,3.12
2591,-488,-22,3.11
2592,-487,-16,3.1
2593,-487,11,1.08
2595,-487,11,1.06
2596,-487,17,1.04
2597,-486,15,2.01
2598,-486,9,2.01
2600,-486,-33,0.03
2601,-486,-28,0.05
2602,-485,-14,0.04
2603,-485,19,0.03
2605,-485,11,1.04
2606,-485,10,1.05
2607,-484,9,1.06
2608,-484,12,1.07
2610,-484,-12,1.07
2611,-484,-24,2.06
2612,-483,-20,2.05
2613,-483,-10,2.04
2615,-483,-7,2.03
2616,-483,27,2.01
2617,-483,24,1
2618,-483,25,0.99
2620,-483,-9,0.98
2621,-483,12,0.97
2622,-482,-14,1.96
2623,-482,-22,1.95
2625,-482,-12,1.94
2626,-481,-9,1.93
2627,-481,-6,1.92
2628,-480,0,1.88
2630,-479,1,1.84
2631,-479,4,1.8
2632,-478,3,1.76
2633,-477,1,1.74
2635,-476,-3,3.7
2636,-476,1,3.66
2637,-475,-2,3.62
2638,-474,-2,3.58
2640,-474,1,1.57
2641,-473,0,1.56
2642,-473,1,1.55
2643,-472,3,1.54
2645,-472,0,1.53
2646,-471,3,2.5
2647,-471,2,2.47
2648,-471,2,2.44
2650,-471,4,2.41
2651,-472,0,1.4
2652,-472,1,1.39
2653,-473,0,1.38
2655,-473,-1,1.37
2656,-474,1,1.36
2657,-475,1,0.33
2658,-475,2,0.3
2660,-476,1,0.27
2661,-477,0,0.24
2662,-477,0,0.21
2663,-478,-1,1.17
2665,-478,1,1.13
2666,-479,0,1.09
2667,-479,1,1.05
2668,-479,0,3.01
2670,-479,1,2.97
2671,-479,1,2.93
2672,-479,1,2.89
2673,-479,-3,2.84
2675,-479,-2,2.79
2676,-479,-2,2.74
2677,-479,1,2.69
2678,-478,0,4.62
2680,-478,1,4.55
2681,-478,1,4.48
2682,-478,3,4.41
2683,-477,-9,5.33
2685,-477,5,5.25
2686,-477,4,5.17
2687,-477,2,5.09
2688,-476,3,4.01
2690,-476,2,3.93
2691,-476,4,3.85
2692,-475,2,3.77
2693,-475,0,0.73
2695,-475,0,0.69
2696,-475,2,0.65
2697,-475,19,0.61
2698,-475,30,1.55
2700,-475,14,1.49
2701,-475,8,1.43
2702,-476,6,-1.6
2703,-476,3,-1.6
2705,-477,-32,-2.59
2706,-477,-22,-2.58
2707,-478,9,-2.57
2708,-479,9,-0.58
2710,-481,7,-0.59
2711,-483,6,-2.58
2712,-486,9,-2.57
2713,-490,5,-2.54
2715,-495,-26,-2.51
2716,-501,-28,-1.49
2717,-510,-28,-1.47
2718,-519,-5,-1.47
2720,-530,11,-1.47
2721,-542,26,-0.48
2722,-554,-5,-0.48
2723,-567,31,-0.48
2725,-580,18,-0.5
2726,-593,12,-0.52
2727,-606,7,-2.52
2728,-619,7,-2.52
2730,-631,2,-2.51
2731,-643,-3,-2.5
2732,-655,-24,-2.49
2733,-665,-31,-2.48
2735,-673,-22,-2.47
2736,-680,-13,-2.45
2737,-686,-12,-2.43
2738,-691,29,-2.41
2740,-692,28,-4.37
2741,-688,21,-4.33
2742,-681,18,-4.3
2743,-672,14,-4.27
2745,-661,0,-4.24
2746,-643,6,-2.23
2747,-621,-7,-2.21
2748,-595,3,-2.19
2750,-566,5,-2.17
2751,-535,-28,-2.15
2752,-497,-25,-3.12
2753,-452,-24,-3.09
2755,-404,-14,-3.06
2756,-352,-7,-3.03
2757,-299,-10,-3
2758,-240,-3,-0
2760,-177,2,0.02
2761,-113,0,0.04
2762,-47,6,0.06
2763,19,6,-0.91
2765,86,-2,-0.9
2766,152,-1,-0.89
2767,216,3,-0.88
2768,276,-1,-2.85
2770,331,4,-2.82
2771,381,3,-2.78
2772,427,1,-2.74
2773,465,2,-0.72
2775,497,-3,-0.7
2776,523,3,-0.69
2777,543,0,-0.68
2778,554,0,-0.67
2780,555,-3,-0.66
2781,549,-3,-0.65
2782,537,-2,-0.65
2783,516,3,-1.64
2785,487,5,-1.63
2786,454,5,-1.62
2787,416,4,-1.61
2788,372,-3,0.39
2790,324,0,0.39
2791,272,0,0.39
2792,219,1,0.39
2793,163,-3,-0.58
2795,106,3,-0.55
2796,49,1,-0.52
2797,-6,1,-0.49
2798,-62,3,-1.45
2800,-116,1,-1.41
2801,-169,3,-1.37
2802,-220,1,-1.33
2803,-269,2,-0.28
2805,-316,0,-0.23
2806,-360,-2,-0.18
2807,-402,0,-0.13
2808,-441,0,0.92
2810,-477,-2,0.97
2811,-511,-2,1.02
2812,-542,0,1.07
2813,-571,0,0.12
2815,-598,1,0.17
2816,-622,1,0.22
2817,-644,13,0.27
2818,-664,21,-0.7
2820,-681,13,-0.67
2821,-697,12,-0.64
2822,-711,12,1.37
2823,-723,14,1.39
2825,-734,-30,1.41
2826,-743,-22,1.43
2827,-750,9,1.42
2828,-756,5,-0.57
2830,-761,9,-0.57
2831,-766,5,1.41
2832,-769,3,1.39
2833,-771,6,1.39
2835,-773,-14,1.39
2836,-774,-30,-0.61
2837,-775,-21,-0.61
2838,-775,-13,-0.61
2840,-775,-7,-0.61
2841,-775,22,2.37
2842,-775,5,2.35
2843,-774,24,2.33
2845,-773,30,2.31
2846,-773,22,2.3
2847,-771,14,-0.68
2848,-770,7,-0.66
2850,-768,-3,-0.64
2851,-766,3,-0.62
2852,-763,-26,-0.62
2853,-761,-26,-1.61
2855,-758,-21,-1.6
2856,-755,-13,-1.59
2857,-752,-11,-1.58
2858,-749,25,-1.57
2860,-746,22,-0.57
2861,-742,17,-0.57
2862,-739,12,-0.57
2863,-735,14,-0.57
2865,-732,5,-0.59
2866,-728,5,1.37
2867,-724,1,1.33
2868,-720,-3,1.29
2870,-716,0,1.25
2871,-712,-17,1.23
2872,-708,-29,0.22
2873,-704,-21,0.21
2875,-699,-15,0.2
2876,-695,-14,0.19
2877,-690,28,0.17
2878,-685,21,2.13
2880,-680,12,2.09
2881,-674,17,2.05
2882,-668,-19,2.01
2883,-663,-16,1.01
2885,-657,-17,1.01
2886,-651,-17,1.01
2887,-645,-9,1.01
2888,-640,-6,1
2890,-635,-1,0.99
2891,-630,5,0.98
2892,-625,1,0.97
2893,-620,4,-0.05
2895,-616,4,-0.07
2896,-612,4,-0.09
2897,-609,2,-0.11
2898,-606,-1,1.87
2900,-603,2,1.85
2901,-601,2,1.83
2902,-599,3,1.81
2903,-597,0,-0.19
2905,-595,-2,-0.19
2906,-593,2,-0.19
2907,-590,-2,-0.19
2908,-589,0,-0.2
2910,-587,-3,-0.21
2911,-585,2,-0.22
2912,-584,0,-0.23
2913,-583,-1,-1.21
2915,-582,1,-1.19
2916,-581,4,-1.17
2917,-581,3,-1.15
2918,-580,-3,-0.15
2920,-580,0,-0.15
2921,-580,0,-0.15
2922,-579,0,-0.15
2923,-579,-2,0.83
2925,-580,4,0.81
2926,-580,2,0.79
2927,-580,4,0.77
2928,-581,-1,-0.23
2930,-581,-1,-0.23
2931,-582,1,-0.23
2932,-583,-7,-0.23
2933,-583,0,-0.22
2935,-583,1,-0.21
2936,-583,3,-0.2
2937,-582,2,-0.19
2938,-582,2,0.8
2940,-581,0,0.79
2941,-581,0,0.78
2942,-580,1,0.77
2943,-579,1,-0.24
2945,-579,2,-0.25
2946,-578,-1,-0.26
2947,-578,0,-0.25
2948,-578,0,-1.23
2950,-577,1,-1.21
2951,-577,-1,-1.19
2952,-576,0,-1.17
2953,-576,29,-2.16
2955,-575,16,-2.15
2956,-575,16,-2.12
2957,-574,7,-2.09
2958,-574,25,-2.06
2960,-574,-26,-4.01
2961,-573,-20,-3.98
2962,-573,13,-3.95
2963,-573,8,-4.91
2965,-572,3,-4.87
2966,-573,-3,-2.82
2967,-573,1,-2.77
2968,-574,4,-2.72
2970,-575,-26,-3.66
2971,-576,-21,-3.6
2972,-578,-20,-3.57
2973,-580,-11,-3.54
2975,-583,25,-3.51
2976,-585,24,-3.48
2977,-586,21,-3.45
2978,-588,17,-3.43
2980,-589,11,-3.41
2981,-591,6,-3.39
2982,-592,1,-2.38
2983,-593,2,-2.37
2985,-594,-7,-2.35
2986,-595,-3,-2.33
2987,-596,-2,-2.31
2988,-597,-31,-2.29
2990,-598,-23,-2.27
2991,-599,-10,-2.23
2992,-600,-10,-2.19
2993,-601,26,-2.15
2995,-601,18,-2.11
2996,-602,18,-2.07
2997,-603,14,-2.04
2998,-603,10,-2.01
3000,-604,6,-1.98
3001,-604,1,-1.95
3002,-604,-6,-1.92
3003,-604,-39,-1.87
3005,-604,-33,-1.82
3006,-604,-18,-1.77
3007,-604,-13,-1.72
3008,-604,-4,-1.68
3010,-604,-5,-1.64
3011,-604,2,-1.6
3012,-603,9,1.41
3013,-603,6,1.42
3015,-603,0,1.43
3016,-603,1,1.44
3017,-603,5,-2.51
3018,-603,1,-2.47
3020,-602,-5,-2.43
3021,-602,3,-2.39
3022,-601,2,-2.35
3023,-601,-2,-1.3
3025,-600,2,-1.25
3026,-600,4,-1.2
3027,-599,3,-1.15
3028,-598,2,1.85
3030,-598,1,1.85
3031,-597,0,1.85
3032,-597,0,1.85
3033,-596,-1,1.85
3035,-596,-1,1.85
3036,-595,-1,1.85
3037,-595,3,1.85
3038,-594,0,1.84
3040,-593,3,1.83
3041,-592,3,1.82
3042,-592,3,1.81
3043,-591,1,0.82
3045,-591,0,0.83
3046,-590,-1,0.84
3047,-590,-2,0.85
3048,-590,1,2.85
3050,-590,2,2.85
3051,-590,0,2.85
3052,-590,1,2.85
3053,-590,0,1.85
3055,-590,1,1.85
3056,-590,0,1.85
3057,-590,-6,1.85
3058,-590,-4,0.86
3060,-590,4,0.87
3061,-590,0,0.88
3062,-590,3,0.89
3063,-591,-1,1.9
3065,-591,5,1.91
3066,-592,3,1.92
3067,-593,-1,1.93
3068,-594,3,3.91
3070,-595,2,3.89
3071,-595,0,3.87
3072,-596,0,3.85
3073,-597,-3,0.85
3075,-597,34,0.85
3076,-597,19,0.85
3077,-597,16,0.85
3078,-597,13,1.83
3080,-597,7,1.81
3081,-598,8,1.79
3082,-598,-2,1.77
3083,-598,-43,0.76
3085,-599,-30,0.73
3086,-599,-18,0.7
3087,-600,-15,0.67
3088,-600,33,1.62
3090,-601,14,1.57
3091,-601,16,1.54
3092,-602,11,-1.46
3093,-603,11,-1.46
3095,-603,-34,-1.47
3096,-604,-27,-1.48
3097,-605,-15,-1.49
3098,-606,20,0.48
3100,-606,16,0.45
3101,-607,12,0.42
3102,-608,11,0.39
3103,-609,6,0.36
3105,-610,5,0.33
3106,-612,-36,1.29
3107,-613,-26,1.26
3108,-614,-14,1.23
3110,-615,-11,1.2
3111,-617,34,1.17
3112,-618,28,0.15
3113,-619,-9,0.13
3115,-620,27,0.11
3116,-620,14,0.09
3117,-621,18,-1.91
3118,-622,8,-1.91
3120,-622,2,-1.91
3121,-623,0,-1.91
3122,-624,5,-1.91
3123,-625,-38,-1.91
3125,-626,-27,-1.91
3126,-627,-19,-1.91
3127,-628,-10,-1.91
3128,-629,20,-1.91
3130,-631,24,0.07
3131,-632,16,0.05
3132,-633,23,0.03
3133,-635,14,0.01
3135,-636,-28,-0.01
3136,-638,-23,-3
3137,-639,-22,-2.96
3138,-640,-13,-2.92
3140,-641,-11,-2.88
3141,-642,-10,0.13
3142,-643,-1,0.1
3143,-643,3,0.07
3145,-644,5,0.04
3146,-645,-6,0.01
3147,-645,0,-1.01
3148,-645,-1,-1.02
3150,-646,6,-1.03
3151,-646,0,-1.04
3152,-646,3,-1.05
3153,-647,3,-1.03
3155,-647,1,-1.01
3156,-647,2,-0.99
3157,-646,1,-0.97
3158,-646,1,-0.95
3160,-646,4,-0.93
3161,-646,3,-0.91
3162,-645,-2,-0.89
3163,-645,2,-0.87
3165,-645,-1,-0.85
3166,-644,-2,-0.83
3167,-644,1,-0.81
3168,-644,1,-1.79
3170,-643,2,-1.77
3171,-643,1,-1.75
3172,-643,3,-1.73
3173,-642,1,-0.7
3175,-641,1,-0.67
3176,-641,1,-0.64
3177,-640,-2,-0.61
3178,-640,0,-0.59
3180,-639,0,-0.57
3181,-639,-2,-0.55
3182,-638,-3,-0.53
3183,-638,-2,-1.51
3185,-638,0,-1.49
3186,-638,2,-1.47
3187,-637,0,-1.45
3188,-637,4,-0.43
3190,-637,3,-0.41
3191,-637,3,-0.39
3192,-637,0,-0.37
3193,-636,-4,-0.33
3195,-636,3,-0.29
3196,-635,-1,-0.25
3197,-635,-5,-0.21
3198,-634,2,-0.2
3200,-634,1,-0.19
3201,-634,3,-0.18
3202,-634,1,-0.17
3203,-634,4,-0.15
3205,-633,4,-0.13
3206,-633,2,-0.11
3207,-632,0,-0.09
3208,-632,-2,-2.06
3210,-632,34,-2.03
3211,-632,25,-2
3212,-631,15,-1.97
3213,-631,13,-0.94
3215,-631,6,-0.91
3216,-630,3,-0.88
3217,-630,0,-0.88
3218,-629,-31,0.11
3220,-628,-26,0.1
3221,-628,-15,0.09
3222,-627,-14,0.08
3223,-626,8,-0.9
3225,-626,15,-0.88
3226,-625,-21,-0.86
3227,-624,2,-0.84
3228,-623,15,1.16
3230,-622,18,1.16
3231,-621,-12,1.17
3232,-621,-16,1.18
3233,-620,-22,1.19
3235,-619,1,1.2
3236,-619,20,0.22
3237,-618,16,0.23
3238,-618,15,1.23
3240,-618,15,1.23
3241,-618,11,1.23
3242,-618,-16,-0.77
3243,-618,-22,-0.77
3245,-618,-16,-0.77
3246,-618,14,3.19
3247,-618,12,3.15
3248,-618,8,3.11
3250,-618,9,3.07
3251,-618,9,3.03
3252,-618,17,2
3253,-618,6,1.97
3255,-618,-25,1.96
3256,-618,-27,1.95
3257,-617,-21,-0.04
3258,-617,-15,-0.03
3260,-617,-5,-0.02
3261,-617,-3,-0.04
3262,-618,-1,-0.06
3263,-618,11,-1.07
3265,-618,3,-1.08
3266,-618,-1,-1.06
3267,-619,3,-1.04
3268,-619,4,-0.03
3270,-620,1,-0.02
3271,-620,2,-0.01
3272,-620,1,-0.01
3273,-620,0,-0.01
3275,-621,-9,-1.99
3276,-621,1,-1.97
3277,-621,3,-1.95
3278,-622,3,-1.93
3280,-622,3,-0.92
3281,-623,-3,-0.91
3282,-623,1,-0.9
3283,-623,-2,-0.89
3285,-624,2,-0.88
3286,-624,0,-2.85
3287,-625,0,-2.82
3288,-625,-1,-2.79
3290,-626,4,-2.76
3291,-626,-1,-2.73
3292,-627,2,-1.71
3293,-627,1,-1.7
3295,-628,1,-1.69
3296,-628,2,-1.68
3297,-628,2,-1.67
3298,-629,0,-0.66
3300,-629,-2,-0.65
3301,-630,2,-0.64
3302,-631,2,-0.63
3303,-631,2,-0.62
3305,-632,1,-0.61
3306,-632,1,-0.6
3307,-632,4,-0.59
3308,-633,-3,0.4
3310,-634,1,0.39
3311,-634,2,0.38
3312,-635,0,0.37
3313,-635,0,0.37
3315,-636,-2,0.37
3316,-637,1,0.37
3317,-638,0,0.37
3318,-638,0,-0.62
3320,-639,0,-0.61
3321,-639,-14,-0.6
3322,-640,1,-0.59
3323,-640,2,0.41
3325,-640,3,0.41
3326,-641,3,0.41
3327,-641,32,0.41
3328,-641,22,-1.57
3330,-642,14,-1.55
3331,-642,7,0.45
3332,-643,-1,0.45
3333,-644,8,0.43
3335,-644,-32,-2.56
3336,-644,-32,-2.55
3337,-645,-25,-2.54
3338,-645,16,-2.52
3340,-645,13,-2.5
3341,-645,14,-2.48
3342,-646,8,-2.46
3343,-646,15,-2.43
3345,-647,-6,-2.4
3346,-648,-25,-2.37
3347,-648,-27,-2.34
3348,-649,-25,-2.32
3350,-650,-5,-2.3
3351,-652,18,-2.28
3352,-653,-10,-2.26
3353,-654,35,-2.22
3355,-655,31,-2.18
3356,-656,17,-2.14
3357,-657,15,-2.1
3358,-658,6,-2.06
3360,-659,4,-2.02
3361,-659,1,-1.99
3362,-660,-8,-1.96
3363,-660,-31,-2.91
3365,-661,-26,-2.86
3366,-661,-26,-2.81
3367,-661,-7,-2.78
3368,-662,22,-2.75
3370,-662,17,-2.72
3371,-662,19,-2.65
3372,-662,20,-2.58
3373,-662,12,-2.51
3375,-662,7,-2.44
3376,-662,6,-0.39
3377,-662,-2,-0.35
3378,-662,-15,-0.31
3380,-662,-27,-0.27
3381,-663,-20,-2.21
3382,-663,-18,-2.17
3383,-663,-13,-2.13
3385,-664,-7,-2.09
3386,-664,3,-2.05
3387,-665,7,-2.01
3388,-665,5,-1.98
3390,-665,1,-1.95
3391,-666,-3,-1.92
3392,-666,-1,0.09
3393,-666,-10,0.11
3395,-666,2,0.13
3396,-666,0,0.15
3397,-666,1,0.17
3398,-666,4,-1.79
3400,-666,3,-1.77
3401,-666,5,-1.75
3402,-666,3,-1.73
3403,-666,1,-1.71
3405,-666,1,-1.68
3406,-665,-2,-1.65
3407,-665,-3,-1.62
3408,-665,-1,-0.6
3410,-665,0,-0.58
3411,-665,1,-0.58
3412,-665,-1,-0.58
3413,-664,-1,-1.57
3415,-664,2,-1.56
3416,-663,2,-1.55
3417,-662,4,-1.53
3418,-662,1,0.47
3420,-661,3,0.47
3421,-661,7,0.47
3422,-660,-3,0.47
3423,-660,-6,-1.5
3425,-659,-1,-1.47
3426,-658,-1,-1.44
3427,-658,1,-1.41
3428,-657,-3,-0.39
3430,-657,2,-0.37
3431,-657,4,-0.35
3432,-656,-1,-0.33
3433,-656,-2,-0.3
3435,-656,-1,-0.27
3436,-656,3,-0.24
3437,-656,5,-0.21
3438,-656,0,-1.17
3440,-656,3,-1.13
3441,-656,0,-1.09
3442,-656,-2,-1.05
3443,-656,0,-0.03
3445,-656,-3,-0.01
3446,-656,6,0.01
3447,-656,32,0.03
3448,-656,26,1.05
3450,-655,18,1.07
3451,-655,14,1.09
3452,-655,6,1.11
3453,-655,1,-1.86
3455,-655,-4,-1.83
3456,-654,-33,-1.78
3457,-654,-26,-1.73
3458,-654,-20,-0.69
3460,-654,-15,-0.68
3461,-654,-7,-0.67
3462,-654,27,-0.66
3463,-654,21,-0.65
3465,-653,15,-0.64
3466,-653,12,-0.63
3467,-653,4,-0.62
3468,-652,8,-0.61
3470,-652,-33,-1.59
3471,-652,-27,-1.57
3472,-652,-4,-1.55
3473,-651,11,0.45
3475,-651,7,0.45
3476,-650,15,-0.54
3477,-650,10,-0.53
3478,-649,15,-0.52
3480,-649,2,-0.51
3481,-648,-34,-1.49
3482,-647,-22,-1.47
3483,-646,-20,-1.45
3485,-645,-3,-1.43
3486,-644,27,-0.42
3487,-643,23,-0.41
3488,-643,20,-0.41
3490,-642,17,-0.41
3491,-641,16,-0.41
3492,-641,6,-3.38
3493,-640,-1,-3.35
3495,-640,-2,-3.32
3496,-640,-2,-3.29
3497,-639,-7,-3.26
3498,-639,-37,-1.25
3500,-639,-19,-1.24
3501,-638,-18,-1.21
3502,-638,-9,-1.18
3503,-637,-6,-1.15
3505,-637,-6,-0.13
3506,-636,-3,-0.13
3507,-636,3,-0.13
3508,-636,5,-0.13
3510,-635,-1,-0.13
3511,-635,2,-0.13
3512,-635,2,-0.13
3513,-635,-1,-0.13
3515,-635,0,-0.13
3516,-635,2,-2.11
3517,-635,1,-2.07
3518,-635,4,-2.03
3520,-635,6,-1.99
3521,-634,0,-1.95
3522,-634,2,-1.91
3523,-634,-5,-1.89
3525,-634,-1,-1.87
3526,-634,2,-1.85
3527,-634,5,0.15
3528,-634,1,0.15
3530,-634,-1,0.15
3531,-634,4,0.15
3532,-634,3,0.15
3533,-634,-1,-0.83
3535,-634,-2,-0.81
3536,-634,2,-0.79
3537,-634,1,-0.77
3538,-634,0,-2.74
3540,-635,2,-2.71
3541,-635,-3,-2.68
3542,-635,-1,-2.65
3543,-636,-5,-2.6
3545,-636,-1,-2.55
3546,-636,5,-2.5
3547,-636,3,-2.45
3548,-635,0,-2.42
3550,-635,3,-2.39
3551,-635,3,-2.36
3552,-634,1,-2.33
3553,-633,2,-4.27
3555,-633,-3,-4.21
3556,-632,4,-4.15
3557,-632,-3,-4.09
3558,-631,3,-1.06
3560,-630,2,-1.03
3561,-630,1,-1
3562,-629,-3,-0.97
3563,-629,-4,-3.92
3565,-628,-3,-3.87
3566,-628,2,-3.82
3567,-628,-3,-3.77
3568,-627,-6,-0.74
3570,-627,3,-0.71
3571,-627,12,-0.68
3572,-626,33,-0.65
3573,-626,21,1.37
3575,-626,13,1.39
3576,-625,10,1.41
3577,-625,0,1.43
3578,-624,-31,1.42
3580,-624,-22,1.41
3581,-623,-24,1.4
3582,-623,18,-0.59
3583,-622,22,-0.57
3585,-622,13,-0.55
3586,-621,13,-0.53
3587,-621,22,0.48
3588,-620,16,0.49
3590,-620,6,0.5
3591,-620,-2,0.51
3592,-619,-3,-1.46
3593,-619,-33,-1.43
3595,-618,-21,-1.41
3596,-617,-20,-1.39
3597,-617,19,-0.38
3598,-616,14,-0.35
3600,-615,9,-0.32
3601,-614,9,-0.3
3602,-614,3,2.69
3603,-613,5,2.68
3605,-612,-38,0.69
3606,-611,-36,0.69
3607,-610,-16,0.69
3608,-609,14,-0.3
3610,-608,12,-0.29
3611,-607,12,2.7
3612,-607,11,2.69
3613,-606,14,2.68
3615,-605,-19,1.68
3616,-605,-28,1.68
3617,-604,-22,1.65
3618,-603,-11,1.62
3620,-603,-1,1.59
3621,-602,24,-0.42
3622,-602,31,-0.43
3623,-602,20,-0.42
3625,-602,19,-0.41
3626,-602,13,-0.4
3627,-602,7,1.59
3628,-602,-31,1.58
3630,-602,-25,1.58
3631,-602,-22,1.58
3632,-602,-15,0.59
3633,-603,-4,0.6
3635,-603,-9,0.61
3636,-603,1,0.62
3637,-603,5,0.63
3638,-603,4,1.63
3640,-603,1,1.63
3641,-603,7,1.61
3642,-603,-3,1.59
3643,-603,4,1.57
3645,-603,-2,1.55
3646,-603,6,1.53
3647,-603,0,1.51
3648,-602,-4,1.49
3650,-602,-3,0.48
3651,-601,3,0.47
3652,-601,7,0.48
3653,-601,10,0.49
3655,-600,8,1.49
3656,-599,4,1.49
3657,-598,0,1.49
3658,-597,4,1.48
3660,-596,-1,1.47
3661,-595,0,2.45
3662,-594,-12,2.43
3663,-593,1,2.39
3665,-593,3,2.35
3666,-592,2,2.31
3667,-591,2,1.28
3668,-591,4,1.25
3670,-590,1,1.22
3671,-589,-3,1.19
3672,-589,-3,1.16
3673,-588,2,1.13
3675,-588,-7,1.1
3676,-587,0,1.07
3677,-587,2,-0.94
3678,-587,4,-0.97
3680,-587,3,-1
3681,-587,0,-1.03
3682,-588,4,2.9
3683,-588,2,2.86
3685,-589,-1,2.82
3686,-589,-1,2.78
3687,-589,-5,0.76
3688,-590,2,0.71
3690,-590,-7,0.66
3691,-590,-4,0.61
3692,-590,0,-2.41
3693,-589,2,-2.4
3695,-589,3,-2.39
3696,-589,3,-2.38
3697,-588,-1,0.6
3698,-587,-1,0.6
3700,-587,-2,0.6
3701,-586,3,0.6
3702,-586,-1,1.59
3703,-585,4,1.58
3705,-584,-9,1.57
3706,-584,1,1.56
3707,-583,35,1.53
3708,-583,25,1.5
3710,-582,18,1.47
3711,-582,10,1.44
3712,-581,-21,0.43
3713,-580,-21,0.42
3715,-580,-18,0.41
3716,-579,-20,0.4
3717,-578,21,-0.62
3718,-578,18,-0.64
3720,-577,13,-0.66
3721,-576,12,-1.67
3722,-575,8,-1.67
3723,-575,-11,-1.67
3725,-574,-38,1.3
3726,-574,-21,1.27
3727,-574,3,1.27
3728,-573,16,-0.71
3730,-573,12,-0.71
3731,-573,13,0.28
3732,-573,18,0.27
3733,-572,6,0.25
3735,-572,-27,1.22
3736,-571,-23,1.22
3737,-570,-27,1.22
3738,-570,-13,1.22
3740,-569,-4,1.21
3741,-568,30,-0.78
3742,-568,-2,-0.77
3743,-567,28,-0.76
3745,-567,29,-0.75
3746,-567,22,-0.76
3747,-566,10,-0.77
3748,-566,5,-0.78
3750,-566,1,-0.79
3751,-565,1,-0.8
3752,-565,-39,1.19
3753,-565,-26,1.18
3755,-564,-15,1.17
3756,-564,-12,1.16
3757,-563,-12,1.14
3758,-563,-8,0.13
3760,-562,4,0.12
3761,-561,4,0.11
3762,-561,6,0.1
3763,-560,4,2.08
3765,-559,8,2.06
3766,-558,6,2.04
3767,-557,-7,2.02
3768,-556,4,2
3770,-555,5,-0.99
3771,-554,5,-0.98
3772,-552,-1,-0.97
3773,-551,3,-0.96
3775,-550,3,-0.96
3776,-550,0,-0.96
3777,-549,-2,-0.96
3778,-548,0,-0.96
3780,-547,1,-0.95
3781,-547,-1,0.05
3782,-546,2,0.05
3783,-545,4,0.05
3785,-545,3,0.05
3786,-545,2,0.06
3787,-544,3,-0.92
3788,-543,1,-0.9
3790,-543,0,-0.88
3791,-542,2,-0.86
3792,-541,5,1.13
3793,-541,2,1.12
3795,-540,-1,1.11
3796,-540,-4,1.1
3797,-539,-4,3.07
3798,-539,-2,3.04
3800,-538,3,3.01
3801,-538,-8,2.98
3802,-538,5,0.95
3803,-537,1,0.92
3805,-537,7,0.89
3806,-537,5,0.86
3807,-536,-5,-1.11
3808,-536,3,-1.08
3810,-536,3,-1.05
3811,-535,-3,-1.02
3812,-535,-2,-0.02
3813,-534,-2,-0.02
3815,-533,0,-0.02
3816,-532,-3,-0.02
3817,-531,4,1.93
3818,-530,4,1.88
3820,-529,5,1.83
3821,-528,2,1.78
3822,-528,2,-0.22
3823,-527,3,-0.22
3825,-526,-1,-0.22
3826,-525,33,-0.22
3827,-525,26,0.78
3828,-524,21,0.78
3830,-524,15,0.78
3831,-524,3,0.78
3832,-524,-25,0.78
3833,-523,-24,0.78
3835,-523,-21,0.78
3836,-522,-17,0.78
3837,-522,6,-1.21
3838,-521,19,-1.2
3840,-521,13,-1.19
3841,-521,15,-1.18
3842,-521,4,-1.18
3843,-521,-16,-1.18
3845,-520,-23,-4.15
3846,-520,-19,-4.13
3847,-520,2,-4.11
3848,-520,19,-1.12
3850,-520,14,-1.1
3851,-520,14,-4.05
3852,-520,10,-4
3853,-520,4,-3.97
3855,-519,-24,-0.97
3856,-519,-29,-0.96
3857,-519,-29,-0.95
3858,-519,-18,-0.94
3860,-519,8,-0.92
3861,-519,28,-0.9
3862,-519,25,-0.88
3863,-519,22,-0.86
3865,-519,17,-0.84
3866,-519,8,-2.82
3867,-519,10,-2.8
3868,-519,4,-2.78
3870,-520,0,-2.76
3871,-520,-5,-2.74
3872,-520,-39,-4.7
3873,-520,-28,-4.66
3875,-521,-20,-4.62
3876,-521,-18,-4.58
3877,-522,-10,-4.52
3878,-522,32,-4.46
3880,-522,18,-4.4
3881,-522,31,-4.34
3882,-522,23,-4.28
3883,-521,11,-4.23
3885,-521,9,-3.19
3886,-520,-32,-3.15
3887,-520,-30,-3.11
3888,-519,-14,-3.05
3890,-519,-14,-3.98
3891,-518,-7,-3.91
3892,-518,-1,-3.84
3893,-518,-1,-3.77
3895,-517,4,-3.73
3896,-517,3,-1.71
3897,-517,5,-1.69
3898,-518,4,-1.67
3900,-518,-2,-1.65
3901,-518,2,-4.6
3902,-518,-11,-4.55
3903,-519,4,-4.5
3905,-519,3,-4.45
3906,-519,2,-4.39
3907,-520,6,-1.36
3908,-520,1,-1.33
3910,-521,-1,-1.3
3911,-522,5,-1.27
3912,-523,-7,-2.24
3913,-523,3,-2.21
3915,-524,-3,-2.18
3916,-524,0,-2.15
3917,-525,0,-2.1
3918,-526,-3,-2.05
3920,-526,1,-2
3921,-527,3,-1.95
3922,-528,1,-0.89
3923,-529,1,-0.83
3925,-529,0,-0.77
3926,-530,5,-0.71
3927,-531,4,-0.67
3928,-532,3,-0.63
3930,-533,2,-0.59
3931,-534,-2,-0.55
3932,-535,-1,-0.53
3933,-536,0,-0.51
3935,-537,-7,-0.49
3936,-538,3,-0.47
3937,-539,0,-0.44
3938,-540,4,-0.41
3940,-541,0,-0.38
3941,-542,2,-0.35
3942,-543,4,1.68
3943,-544,2,1.71
3945,-545,-3,1.74
3946,-546,1,1.77
3947,-547,3,-1.19
3948,-548,0,-1.15
3950,-549,-1,-1.11
3951,-549,-7,-1.07
3952,-550,4,0.96
3953,-551,4,0.99
3955,-553,-3,1.02
3956,-554,-2,1.05
3957,-556,1,0.09
3958,-557,4,0.13
3960,-558,33,0.17
3961,-560,25,0.21
3962,-561,20,-1.75
3963,-562,15,-1.71
3965,-562,8,-1.67
3966,-563,2,-1.63
3967,-563,-22,1.38
3968,-562,-30,1.39
3970,-562,-24,1.37
3971,-561,-15,1.35
3972,-560,27,1.33
3973,-559,29,1.34
3975,-558,7,1.35
3976,-556,6,1.33
3977,-554,5,1.31
3978,-552,0,1.29
3980,-550,-33,-4.64
3981,-547,-24,-4.57
3982,-544,-17,-4.5
3983,-541,15,-3.44
3985,-537,11,-3.38
3986,-533,6,-4.31
3987,-528,14,-4.24
3988,-523,9,-4.17
3990,-518,-30,-0.14
3991,-513,-18,-0.13
3992,-508,-21,-0.12
3993,-503,-20,-0.11
3995,-499,0,-0.1
3996,-494,29,-2.07
3997,-490,-6,-2.06
3998,-486,35,-2.05
4000,-483,25,-2.04
4001,-479,19,-2.03
4002,-476,18,-1.03
4003,-474,-29,-1.03
4005,-471,-25,-1.03
4006,-469,-18,-1.03
4007,-467,-20,-1.03
4008,-466,-16,-1.03
4010,-464,-4,-1.02
4011,-463,0,-1.01
4012,-462,7,-1
4013,-461,3,-2.97
4015,-460,2,-2.95
4016,-460,1,-2.93
4017,-459,5,-2.91
4018,-459,6,-1.9
4020,-459,5,-1.89
4021,-458,-16,-1.86
4022,-458,6,-1.83
4023,-458,6,-1.8
4025,-458,5,-1.77
4026,-459,4,-1.77
4027,-459,5,-1.77
4028,-460,5,-1.77
4030,-461,0,-1.77
4031,-462,4,1.2
4032,-463,-6,1.2
4033,-464,0,1.2
4035,-465,-1,1.2
4036,-466,0,-1.77
4037,-466,-2,-1.75
4038,-467,-3,-1.73
4040,-468,-2,-1.71
4041,-468,-2,-1.69
4042,-468,4,-3.65
4043,-468,1,-3.61
4045,-468,-2,-3.57
4046,-468,3,-3.53
4047,-468,5,-0.51
4048,-467,0,-0.49
4050,-466,3,-0.47
4051,-465,-1,-0.45
4052,-464,3,-0.43
4053,-462,-2,-0.41
4055,-461,1,-0.39
4056,-459,3,-0.37
4057,-458,3,0.64
4058,-456,-11,0.65
4060,-454,3,0.66
4061,-452,-1,0.67
4062,-451,4,1.67
4063,-449,3,1.67
4065,-448,-3,1.67
4066,-447,-2,1.67
4067,-446,1,0.7
4068,-445,7,0.73
4070,-444,1,0.76
4071,-443,1,0.79
4072,-443,3,0.79
4073,-442,-3,0.79
4075,-441,3,0.79
4076,-440,-1,0.79
4077,-440,-1,-2.16
4078,-440,2,-2.11
4080,-439,37,-2.06
4081,-439,27,-2.01
4082,-439,16,0.01
4083,-439,9,0.03
4085,-439,14,0.05
4086,-440,6,0.07
4087,-440,-34,2.05
4088,-441,-25,2.03
4090,-442,-22,2.01
4091,-443,-18,1.99
4092,-444,-12,2
4093,-445,24,2.01
4095,-446,17,2.02
4096,-447,15,-1.93
4097,-449,10,-1.88
4098,-450,12,-1.83
4100,-451,-31,3.17
4101,-453,-19,3.17
4102,-454,-20,3.17
4103,-456,18,0.2
4105,-457,13,0.17
4106,-458,12,0.14
4107,-459,11,2.09
4108,-460,12,2.05
4110,-461,-25,0.03
4111,-462,-19,-0
4112,-462,-22,-0.03
4113,-462,-6,-0.06
4115,-463,-8,-0.05
4116,-462,32,-0.04
4117,-462,17,-0.03
4118,-462,25,-0.02
4120,-461,-13,-0.01
4121,-460,16,0.97
4122,-460,17,0.95
4123,-460,12,0.93
4125,-459,9,0.91
4126,-459,4,0.89
4127,-459,-30,-2.09
4128,-459,-23,-2.07
4130,-458,-18,-2.05
4131,-458,-15,-2.03
4132,-457,-8,1.95
4133,-457,-5,1.93
4135,-456,-2,1.91
4136,-456,4,1.89
4137,-455,-2,1.87
4138,-454,4,-0.15
4140,-454,5,-0.17
4141,-453,-5,-0.19
4142,-452,1,-0.21
4143,-452,5,-0.22
4145,-451,1,-0.23
4146,-451,1,-0.24
4147,-451,7,-0.25
4148,-451,3,-0.26
4150,-451,-2,0.72
4151,-451,-1,0.7
4152,-452,-3,0.68
4153,-452,1,0.66
4155,-452,0,0.64
4156,-452,0,-3.31
4157,-452,5,-3.26
4158,-452,3,-3.21
4160,-452,0,-3.16
4161,-452,-4,-3.14
4162,-452,4,-0.15
4163,-452,4,-0.16
4165,-452,2,-0.17
4166,-452,1,-0.18
4167,-452,0,-2.19
4168,-452,3,-2.2
4170,-452,0,-2.21
4171,-453,-1,-2.22
4172,-454,0,-1.21
4173,-457,-7,-1.2
4175,-460,2,-1.19
4176,-464,2,-1.18
4177,-469,-1,-0.18
4178,-475,1,-0.18
4180,-483,3,-0.18
4181,-490,2,-0.18
4182,-498,1,-1.16
4183,-506,0,-1.14
4185,-515,2,-1.12
4186,-523,2,-1.1
4187,-530,0,-2.06
4188,-537,2,-2.02
4190,-543,2,-1.98
4191,-548,-6,-1.94
4192,-550,2,-0.92
4193,-550,1,-0.9
4195,-547,2,-0.88
4196,-543,3,-0.86
4197,-534,32,-1.83
4198,-520,24,-1.8
4200,-502,19,-1.77
4201,-482,17,-1.74
4202,-455,4,-3.72
4203,-421,4,-3.7
4205,-383,-6,-3.68
4206,-342,-15,-3.66
4207,-293,-26,-2.63
4208,-238,-31,-2.6
4210,-179,-23,-2.57
4211,-117,-8,-2.54
4212,-50,14,-2.49
4213,19,18,-2.44
4215,90,16,-2.39
4216,163,15,-2.34
4217,236,6,-2.29
4218,305,-8,-4.22
4220,372,-31,-4.15
4221,436,-21,-4.12
4222,496,-13,-4.09
4223,549,19,-3.07
4225,596,16,-3
4226,634,14,-2.93
4227,665,11,-2.86
4228,688,7,-2.82
4230,702,-15,-1.79
4231,706,-23,-1.76
4232,704,-24,-1.71
4233,695,-13,-1.66
4235,680,-8,-1.63
4236,659,33,-3.58
4237,632,7,-3.53
4238,600,2,-3.48
4240,565,26,-3.43
4241,525,27,-3.38
4242,481,15,-3.33
4243,435,4,-3.28
4245,387,-2,-3.23
4246,339,5,-3.17
4247,288,-49,-3.11
4248,237,-28,-3.05
4250,185,-21,-2.99
4251,134,-10,-2.93
4252,84,-1,-2.9
4253,34,35,-2.87
4255,-14,1,-2.84
4256,-62,26,-2.81
4257,-109,24,-2.74
4258,-154,14,-1.68
4260,-198,12,-1.62
4261,-241,9,-1.56
4262,-281,-35,-1.5
4263,-320,-15,-1.46
4265,-357,-16,-1.42
4266,-391,-11,-1.38
4267,-424,-9,-1.34
4268,-455,-2,-1.3
4270,-483,2,-1.26
4271,-510,3,-4.19
4272,-535,3,-4.12
4273,-559,-1,-4.05
4275,-580,0,-3.97
4276,-600,1,-1.91
4277,-617,1,-1.85
4278,-633,1,-1.79
4280,-647,0,-1.73
4281,-660,-1,-1.71
4282,-671,-2,-2.68
4283,-681,2,-2.65
4285,-690,2,-2.62
4286,-698,-1,-2.59
4287,-704,-1,-0.55
4288,-710,1,-0.51
4290,-714,1,-0.47
4291,-718,1,-0.43
4292,-721,4,-1.4
4293,-724,2,-1.37
4295,-725,2,-1.34
4296,-726,4,-1.31
4297,-727,3,-1.27
4298,-727,-1,-1.23
4300,-727,-4,-1.19
4301,-727,-3,-1.15
4302,-726,-3,-0.11
4303,-725,-4,-0.07
4305,-724,-2,-0.03
4306,-722,3,0.01
4307,-721,1,0.04
4308,-719,2,0.07
4310,-718,0,0.1
4311,-716,0,0.13
4312,-714,5,-0.84
4313,-712,0,-0.81
4315,-710,0,-0.78
4316,-708,2,-0.75
4317,-707,-2,-0.71
4318,-704,-1,-0.67
4320,-702,0,-0.63
4321,-700,1,-0.59
4322,-698,-1,0.43
4323,-696,-1,0.45
4325,-694,3,0.47
4326,-691,1,0.49
4327,-689,0,-0.5
4328,-686,0,-0.49
4330,-684,2,-0.48
4331,-681,2,-0.47
4332,-679,21,0.54
4333,-676,21,0.55
4335,-674,10,0.56
4336,-671,10,-1.41
4337,-669,8,-1.38
4338,-668,-19,-1.35
4340,-666,-17,-1.32
4341,-664,-19,-1.29
4342,-662,26,-1.26
4343,-660,9,-1.25
4345,-658,4,-1.24
4346,-656,12,-1.23
4347,-654,12,-1.22
4348,-653,7,0.78
4350,-651,-31,0.78
4351,-649,-23,0.78
4352,-648,-13,0.78
4353,-646,-13,0.78
4355,-645,18,-0.2
4356,-643,17,-0.18
4357,-642,-12,-0.16
4358,-640,-4,-0.14
4360,-639,27,-0.12
4361,-638,20,-2.1
4362,-636,12,-2.08
4363,-635,0,-2.06
4365,-633,3,-2.04
4366,-632,5,-2.02
4367,-630,-23,-0.02
4368,-629,-24,-0.02
4370,-628,-19,-0.02
4371,-627,-11,-0.02
4372,-626,-5,-0.02
4373,-624,26,1.96
4375,-623,22,1.94
4376,-621,15,1.92
4377,-620,18,1.9
4378,-618,-20,-1.09
4380,-617,-20,-1.08
4381,-615,-17,-1.07
4382,-614,-11,-1.06
4383,-612,-6,-1.04
4385,-611,-6,-0.03
4386,-610,2,-0.02
4387,-608,2,-0.01
4388,-607,2,-0
4390,-606,3,1
4391,-604,2,1
4392,-603,-1,1
4393,-601,0,1
4395,-600,2,1
4396,-598,0,-0.02
4397,-597,-3,-0.04
4398,-595,2,-0.06
4400,-594,4,-0.08
4401,-592,1,1.9
4402,-591,2,1.88
4403,-590,1,1.86
4405,-588,0,1.84
4406,-587,-1,1.82
4407,-586,-1,2.78
4408,-584,1,2.74
4410,-583,1,2.7
4411,-581,0,2.66
4412,-579,-1,0.66
4413,-577,0,0.66
4415,-575,-1,0.66
4416,-573,1,0.66
4417,-571,0,-0.34
4418,-569,1,-0.34
4420,-566,-5,-0.34
4421,-564,4,-0.34
4422,-562,-2,1.64
4423,-560,3,1.62
4425,-558,1,1.6
4426,-556,3,1.58
4427,-555,0,1.57
4428,-553,-1,1.56
4430,-552,2,1.55
4431,-550,2,1.54
4432,-549,1,-0.45
4433,-547,2,-0.44
4435,-546,1,-0.43
4436,-545,3,-0.42
4437,-543,1,-0.42
4438,-542,-1,-0.42
4440,-541,1,-0.42
4441,-540,0,-0.42
4442,-539,-4,-0.42
4443,-538,-3,-0.42
4445,-537,-1,-0.42
4446,-536,2,-0.42
4447,-535,7,1.57
4448,-534,0,1.56
4450,-533,3,1.55
4451,-532,2,1.54
4452,-531,32,2.51
4453,-530,19,2.48
4455,-528,18,2.45
4456,-528,3,-0.55
4457,-527,6,-0.54
4458,-526,-12,3.43
4460,-526,-29,3.4
4461,-526,-25,3.35
4462,-526,-16,-0.66
4463,-526,18,-0.67
4465,-526,15,-0.68
4466,-526,8,0.3
4467,-526,14,0.28
4468,-527,12,0.26
4470,-527,-17,-0.75
4471,-527,-18,-0.76
4472,-527,-26,-0.77
4473,-527,-16,-0.76
4475,-527,11,-1.74
4476,-527,29,-1.72
4477,-528,21,-1.7
4478,-528,21,-1.68
4480,-528,16,-1.67
4481,-529,12,-1.66
4482,-529,0,-1.65
4483,-530,1,-1.64
4485,-530,-3,-1.63
4486,-531,-6,-1.64
4487,-532,-28,-1.65
4488,-532,-28,-1.66
4490,-532,-22,-1.67
4491,-533,-19,-1.68
4492,-533,-5,-1.67
4493,-533,30,0.32
4495,-533,25,0.31
4496,-533,22,0.3
4497,-533,17,0.29
4498,-533,14,0.3
4500,-533,9,0.31
4501,-533,-2,0.32
4502,-533,-4,0.33
4503,-533,-8,0.31
4505,-532,-38,-2.68
4506,-532,-31,-2.67
4507,-533,-19,-2.66
4508,-533,-11,-2.65
4510,-533,-2,-2.63
4511,-533,0,-0.63
4512,-534,2,-0.63
4513,-534,2,-0.63
4515,-535,2,-0.62
4516,-536,3,-1.6
4517,-538,5,-1.58
4518,-540,1,-1.56
4520,-541,2,-1.54
4521,-543,3,-1.53
4522,-545,0,-4.49
4523,-547,0,-4.45
4525,-549,-3,-4.41
4526,-551,2,-4.35
4527,-553,2,-0.33
4528,-554,3,-0.31
4530,-556,4,-0.29
4531,-557,0,-0.27
4532,-558,1,-2.22
4533,-559,2,-2.17
4535,-559,0,-2.12
4536,-560,1,-2.07
4537,-560,-5,-0.06
4538,-560,-2,-0.05
4540,-561,3,-0.04
4541,-561,2,-0.03
4542,-561,-2,0.96
4543,-561,4,0.95
4545,-561,4,0.94
4546,-561,-1,0.93
4547,-561,2,-1.04
4548,-561,-4,-1.01
4550,-561,-2,-0.98
4551,-561,1,-0.95
4552,-561,1,0.07
4553,-561,3,0.09
4555,-561,4,0.11
4556,-562,1,0.13
4557,-562,1,0.13
4558,-562,5,0.13
4560,-562,-2,0.13
4561,-562,2,0.13
4562,-562,-1,1.12
4563,-562,0,1.11
4565,-562,0,1.1
4566,-563,1,1.09
4567,-563,-4,0.09
4568,-563,0,0.09
4570,-563,1,0.09
4571,-564,2,0.09
4572,-564,1,3.08
4573,-565,1,3.07
4575,-566,37,3.06
4576,-566,28,3.05
4577,-567,20,2.06
4578,-568,13,2.07
4580,-569,7,2.08
4581,-570,4,2.06
4582,-571,-29,4.02
4583,-571,-32,4.02
4585,-571,-24,4.02
4586,-571,-17,4.02
4587,-571,14,2
4588,-570,18,1.98
4590,-570,20,1.96
4591,-569,6,3.93
4592,-569,11,3.9
4593,-568,-10,5.85
4595,-567,-36,5.79
4596,-566,-20,5.73
4597,-565,-8,5.67
4598,-564,18,5.61
4600,-563,20,5.54
4601,-562,15,6.46
4602,-561,9,6.38
4603,-560,8,8.28
4605,-558,-26,8.18
4606,-557,-20,8.08
4607,-555,-15,7.98
4608,-554,-13,7.88
4610,-552,5,7.78
4611,-550,21,7.68
4612,-548,21,7.58
4613,-546,-7,7.48
4615,-544,16,7.38
4616,-542,14,7.28
4617,-540,12,7.18
4618,-538,4,7.1
4620,-536,4,7.02
4621,-533,5,6.94
4622,-531,-20,9.83
4623,-529,-33,9.72
4625,-526,-24,9.61
4626,-523,-16,9.5
4627,-521,-10,9.39
4628,-518,25,9.28
4630,-515,25,9.14
4631,-512,21,9
4632,-510,18,8.86
4633,-507,17,8.72
4635,-504,7,8.58
4636,-502,-31,8.46
4637,-500,-30,8.34
4638,-498,-26,8.22
4640,-496,-12,7.11
4641,-494,-9,6.99
4642,-492,-5,6.87
4643,-490,4,6.75
4645,-489,5,7.62
4646,-487,2,7.49
4647,-485,-3,7.33
4648,-484,0,7.17
4650,-482,2,7.01
4651,-481,3,7.84
4652,-479,3,7.71
4653,-478,-1,7.58
4655,-477,3,7.45
4656,-476,2,8.31
4657,-475,1,8.15
4658,-474,1,7.99
4660,-474,2,7.83
4661,-473,0,7.67
4662,-473,0,6.54
4663,-472,3,6.41
4665,-472,3,6.28
4666,-472,1,6.15
4667,-471,1,7.02
4668,-471,2,6.89
4670,-470,3,6.76
4671,-470,-2,6.63
4672,-470,0,6.48
4673,-469,1,6.33
4675,-469,1,6.18
4676,-468,0,6.03
4677,-468,-1,6.88
4678,-467,-1,6.73
4680,-467,-1,6.58
4681,-466,2,6.43
4682,-465,1,7.27
4683,-465,2,7.11
4685,-464,3,6.95
4686,-464,4,6.79
4687,-463,-2,5.65
4688,-462,0,5.51
4690,-462,-4,5.37
4691,-461,2,5.23
4692,-461,-1,6.07
4693,-461,0,5.91
4695,-460,-3,5.75
4696,-460,5,5.59
4697,-460,3,6.45
4698,-460,2,6.31
4700,-460,2,6.17
4701,-459,2,6.03
4702,-459,1,4.89
4703,-459,0,4.75
4705,-459,0,4.61
4706,-459,2,4.47
4707,-460,-1,5.34
4708,-460,-3,5.21
4710,-460,-3,5.08
4711,-460,33,4.95
4712,-460,30,4.8
4713,-460,15,4.65
4715,-460,17,4.5
4716,-460,6,4.37
4717,-460,-16,5.23
4718,-461,-32,5.11
4720,-461,-24,4.99
4721,-461,-17,4.87
4722,-461,-14,3.76
4723,-461,30,3.65
4725,-462,18,3.54
4726,-462,19,4.43
4727,-463,11,4.32
4728,-464,-9,2.25
4730,-465,-38,2.18
4731,-466,-17,2.11
4732,-467,13,2.04
4733,-468,19,1.97
4735,-469,8,1.9
4736,-470,14,3.81
4737,-470,14,3.72
4738,-471,-21,4.62
4740,-472,-18,4.52
4741,-473,-20,4.42
4742,-473,-13,4.32
4743,-473,-3,4.22
4745,-474,23,4.12
4746,-474,19,4.02
4747,-475,20,3.95
4748,-475,10,3.88
4750,-475,-13,1.83
4751,-476,-18,1.78
4752,-476,-21,1.73
4753,-476,-14,1.68
4755,-476,-6,1.63
4756,-476,-4,2.57
4757,-476,-1,2.51
4758,-476,6,2.45
4760,-475,2,2.39
4761,-475,12,3.32
4762,-474,4,3.25
4763,-474,3,3.18
4765,-473,0,3.1
4766,-473,5,3.02
4767,-473,-1,4.92
4768,-473,0,4.82
4770,-472,0,4.73
4771,-472,-3,4.64
4772,-472,0,4.55
4773,-473,0,4.46
4775,-473,2,4.37
4776,-473,3,4.29
4777,-474,0,4.21
4778,-474,1,1.16
4780,-474,2,1.11
4781,-474,-1,1.07
4782,-475,1,1.03
4783,-475,0,0.99
4785,-475,0,0.95
4786,-476,0,0.91
4787,-476,0,0.86
4788,-477,-1,0.81
4790,-477,2,2.74
4791,-477,-3,2.67
4792,-477,2,2.61
4793,-477,0,2.55
4795,-477,-2,2.49
4796,-477,2,4.41
4797,-477,2,4.33
4798,-476,-1,4.25
4800,-476,1,4.17
4801,-475,0,3.1
4802,-475,4,3.04
4803,-474,-1,2.98
4805,-473,2,2.92
4806,-473,1,2.86
4807,-472,0,0.83
4808,-472,-1,0.8
4810,-472,-1,0.77
4811,-471,-2,0.74
4812,-471,-1,1.69
4813,-471,0,1.64
4815,-471,1,1.59
4816,-471,0,0.55
4817,-471,0,0.52
4818,-471,2,0.49
4820,-470,2,0.46
4821,-470,-1,2.41
4822,-470,0,2.37
4823,-470,2,2.33
4825,-469,2,2.29
4826,-469,0,1.26
4827,-469,10,1.22
4828,-469,29,1.18
4830,-469,16,1.14
4831,-469,15,2.09
4832,-470,10,2.05
4833,-470,-27,2.01
4835,-470,-24,1.97
4836,-470,-25,1.93
4837,-470,-2,0.9
4838,-470,15,0.87
4840,-470,11,0.84
4841,-470,15,3.78
4842,-470,15,3.73
4843,-470,4,1.7
4845,-470,-20,1.67
4846,-470,-19,1.64
4847,-470,-23,1.6
4848,-470,-15,1.56
4850,-470,-3,2.51
4851,-470,35,2.47
4852,-470,22,2.43
4853,-471,23,2.37
4855,-471,19,6.27
4856,-471,9,6.17
4857,-471,4,6.07
4858,-471,-1,5.97
4860,-470,-6,5.87
4861,-470,-8,4.8
4862,-470,-10,4.73
4863,-470,-33,4.67
4865,-470,-17,4.61
4866,-470,-16,4.55
4867,-470,-9,3.5
4868,-470,25,3.45
4870,-470,28,3.4
4871,-470,28,3.35
4872,-470,18,3.3
4873,-470,13,3.25
4875,-470,6,3.18
4876,-470,3,3.11
4877,-470,-5,3.04
4878,-470,1,2.97
4880,-470,-35,3.89
4881,-470,-26,3.82
4882,-470,-22,3.75
4883,-470,-10,3.68
4885,-469,-7,2.62
4886,-469,-17,2.57
4887,-469,-1,2.52
4888,-468,5,2.47
4890,-467,4,2.42
4891,-467,3,2.37
4892,-467,2,2.34
4893,-467,2,2.31
4895,-467,6,2.28
4896,-467,3,0.27
4897,-467,1,0.26
4898,-467,1,0.25
4900,-468,3,0.24
4901,-468,4,1.22
4902,-468,-2,1.2
4903,-469,0,1.15
4905,-469,1,1.1
4906,-470,2,2.04
4907,-470,2,1.98
4908,-471,-1,1.92
4910,-472,0,1.86
4911,-472,4,1.8
4912,-473,4,1.74
4913,-473,1,1.68
4915,-474,0,1.64
4916,-474,1,0.61
4917,-475,0,0.58
4918,-475,-2,0.55
4920,-475,1,0.52
4921,-476,-1,2.49
4922,-476,0,2.46
4923,-477,1,2.43
4925,-477,0,2.4
4926,-478,0,2.36
4927,-478,-2,2.32
4928,-479,-1,2.28
4930,-480,1,2.24
4931,-480,2,0.22
4932,-481,1,0.18
4933,-482,0,0.14
4935,-482,0,0.1
4936,-483,0,1.05
4937,-483,1,1.01
4938,-483,0,0.97
4940,-484,0,0.93
4941,-484,0,-2.09
4942,-484,1,-2.11
4943,-484,1,-2.13
4945,-483,-2,-2.15
4946,-483,2,-0.17
4947,-483,7,-0.19
4948,-484,17,-0.21
4950,-484,22,-0.23
4951,-484,11,0.73
4952,-484,9,0.69
4953,-484,-2,0.65
4955,-485,-32,0.61
4956,-485,-21,0.58
4957,-485,-8,0.55
4958,-486,14,0.52
4960,-486,13,0.49
4961,-486,9,1.45
4962,-486,15,1.4
4963,-487,14,0.36
4965,-487,-14,0.32
4966,-487,-21,0.31
4967,-486,-18,0.3
4968,-486,-20,0.27
4970,-486,-14,1.23
4971,-486,17,1.19
4972,-485,7,1.15
4973,-485,-11,1.11
4975,-485,33,3.06
4976,-485,27,3.01
4977,-485,21,2.96
4978,-485,18,2.91
4980,-486,10,2.9
4981,-486,8,1.9
4982,-487,-1,1.9
4983,-487,-33,1.9
4985,-488,-25,1.9
4986,-489,-18,1.89
4987,-489,-16,1.88
4988,-490,1,1.87
4990,-491,26,1.86
4991,-492,23,1.85
4992,-492,22,1.83
4993,-493,11,0.82
4995,-494,7,0.81
4996,-495,7,0.8
4997,-495,0,0.79
4998,-496,-2,0.78
5000,-497,3,0.77
5001,-498,-30,0.76
5002,-499,-27,0.75
5003,-500,-20,0.74
5005,-501,-20,0.74
5006,-502,-8,0.74
5007,-502,-6,0.74
5008,-503,-1,0.74
5010,-504,6,0.73
5011,-505,3,2.7
5012,-506,0,2.67
5013,-507,4,2.64
5015,-508,4,2.61
5016,-509,-2,2.58
5017,-510,1,2.55
5018,-511,1,2.52
5020,-512,3,2.49
5021,-514,3,2.44
5022,-515,-1,2.39
5023,-516,-1,2.34
5025,-518,1,2.29
5026,-519,-2,0.27
5027,-521,6,0.25
5028,-523,-1,0.23
5030,-525,0,0.21
5031,-528,2,0.2
5032,-530,1,0.19
5033,-533,-2,0.18
5035,-535,-1,0.17
5036,-538,1,2.14
5037,-540,2,2.11
5038,-543,0,2.08
5040,-545,-2,2.05
5041,-547,1,2.01
5042,-548,2,1.97
5043,-550,0,1.93
5045,-551,-5,1.89
5046,-552,-2,0.88
5047,-553,-2,0.87
5048,-554,0,0.86
5050,-554,3,0.85
5051,-554,1,1.83
5052,-554,1,1.81
5053,-553,3,1.79
5055,-552,2,1.77
5056,-551,1,2.72
5057,-550,1,2.67
5058,-549,1,2.62
5060,-548,2,2.57
5061,-546,0,1.54
5062,-544,2,1.51
5063,-543,2,1.48
5065,-541,0,1.45
5066,-539,1,1.39
5067,-536,13,1.33
5068,-533,24,1.27
5070,-529,21,1.21
5071,-525,13,0.18
5072,-521,8,0.15
5073,-517,-23,1.11
5075,-512,-19,1.07
5076,-507,-18,1.04
5077,-501,20,-0.97
5078,-497,16,-0.98
5080,-492,6,-0
5081,-487,8,-0.02
5082,-483,3,-0.04
5083,-479,-5,-0.06
5085,-475,-32,-0.08
5086,-471,-31,-0.09
5087,-468,-14,-0.1
5088,-465,-13,0.87
5090,-462,21,0.84
5091,-459,17,0.81
5092,-457,-12,0.78
5093,-455,33,0.75
5095,-453,24,-2.24
5096,-451,23,-2.23
5097,-450,9,-2.22
5098,-449,5,-2.21
5100,-448,8,-2.18
5101,-448,4,-0.17
5102,-448,-30,-0.16
5103,-449,-26,-0.15
5105,-449,-23,-0.14
5106,-450,-13,-1.13
5107,-452,-18,-1.12
5108,-453,27,-1.11
5110,-455,22,-1.1
5111,-457,21,-1.09
5112,-459,12,-0.09
5113,-461,12,-0.09
5115,-463,1,-0.09
5116,-465,-1,-0.09
5117,-467,0,-0.09
5118,-469,-3,-0.1
5120,-471,-23,-0.11
5121,-473,-27,-0.12
5122,-475,-22,-0.13
5123,-477,-11,-0.14
5125,-478,-5,-0.15
5126,-479,30,-0.16
5127,-480,26,-0.17
5128,-481,24,-0.18
5130,-482,17,-0.19
5131,-482,-18,-1.19
5132,-482,-20,-1.19
5133,-482,-18,-1.19
5135,-482,-15,-1.19
5136,-481,-11,0.81
5137,-480,-5,0.81
5138,-480,-3,0.81
5140,-479,4,0.81
5141,-478,5,0.81
5142,-477,-8,0.81
5143,-477,1,0.81
5145,-476,4,0.81
5146,-476,4,-0.18
5147,-475,2,-0.17
5148,-475,4,-0.16
5150,-475,-8,-0.15
5151,-475,-2,-0.16
5152,-476,2,-0.17
5153,-476,0,-0.18
5155,-477,4,-0.19
5156,-477,5,0.79
5157,-478,4,0.77
5158,-478,0,0.75
5160,-479,1,0.73
5161,-480,0,0.73
5162,-480,2,0.73
5163,-481,1,0.73
5165,-481,0,0.73
5166,-482,-3,0.73
5167,-483,-1,0.73
5168,-484,2,0.73
5170,-485,1,0.73
5171,-487,3,1.71
5172,-488,-1,1.69
5173,-490,0,1.67
5175,-492,1,1.65
5176,-495,2,1.64
5177,-497,0,1.63
5178,-499,0,1.62
5180,-501,1,1.61
5181,-502,0,1.61
5182,-504,0,1.61
5183,-506,1,1.61
5185,-507,-3,1.61
5186,-508,4,1.6
5187,-510,-12,1.59
5188,-511,-1,1.58
5190,-512,1,1.57
5191,-513,6,3.54
5192,-514,3,3.51
5193,-515,2,3.48
5195,-516,-2,3.45
5196,-517,3,4.4
5197,-518,-1,4.35
5198,-519,3,4.31
5200,-519,3,4.27
5201,-520,2,-0.72
5202,-521,6,-0.73
5203,-522,30,-0.74
5205,-523,21,-0.74
5206,-524,13,3.22
5207,-524,7,3.18
5208,-525,-16,1.16
5210,-525,-21,1.14
5211,-525,-20,1.12
5212,-525,15,2.09
5213,-525,15,2.07
5215,-525,6,2.05
5216,-525,9,2.03
5217,-525,6,2.01
5218,-525,-1,3.97
5220,-525,-34,3.9
5221,-525,-27,3.83
5222,-524,-17,3.76
5223,-524,-9,1.71
5225,-523,4,1.66
5226,-523,11,1.63
5227,-522,-2,1.6
5228,-522,35,1.57
5230,-521,22,0.55
5231,-521,23,0.52
5232,-520,11,0.49
5233,-520,7,0.46
5235,-519,1,0.43
5236,-519,6,2.38
5237,-519,-34,2.34
5238,-518,-27,2.3
5240,-518,-23,2.26
5241,-518,-11,2.22
5242,-518,-8,1.19
5243,-517,27,1.16
5245,-517,30,1.13
5246,-517,22,1.1
5247,-517,14,0.08
5248,-517,10,0.06
5250,-517,4,0.04
5251,-516,3,0.02
5252,-516,2,-0
5253,-516,0,0.97
5255,-517,-33,0.94
5256,-517,-25,0.9
5257,-518,-22,0.86
5258,-519,-7,0.82
5260,-520,-6,-0.21
5261,-521,-9,-0.22
5262,-522,1,-0.23
5263,-524,4,-0.24
5265,-527,3,-0.25
5266,-531,3,-0.26
5267,-536,-8,-0.27
5268,-541,5,-0.28
5270,-548,0,-0.29
5271,-555,-1,-0.31
5272,-562,3,-0.33
5273,-570,4,-0.35
5275,-579,2,-0.37
5276,-587,6,-0.39
5277,-596,0,-0.41
5278,-604,-1,-0.43
5280,-612,-2,-0.45
5281,-619,2,0.53
5282,-625,3,0.51
5283,-630,0,0.49
5285,-634,1,0.47
5286,-634,2,-1.53
5287,-630,0,-1.53
5288,-624,0,-1.53
5290,-615,1,-1.53
5291,-600,1,-1.53
5292,-581,0,-1.53
5293,-557,-7,-1.53
5295,-531,2,-1.53
5296,-498,3,-1.52
5297,-459,2,-1.51
5298,-417,-1,-1.5
5300,-372,1,-1.49
5301,-319,0,0.5
5302,-261,1,0.49
5303,-198,-2,0.48
5305,-134,-1,0.47
5306,-64,1,-0.53
5307,6,2,-0.53
5308,80,0,-0.53
5310,154,2,-0.53
5311,226,-1,-0.53
5312,296,1,-0.53
5313,364,-1,-0.53
5315,429,1,-0.53
5316,489,0,-3.48
5317,544,1,-3.43
5318,595,2,-3.38
5320,640,0,-3.33
5321,678,2,-0.3
5322,710,1,-0.27
5323,734,0,-0.24
5325,754,31,-0.21
5326,766,23,-1.22
5327,771,18,-1.23
5328,772,14,-1.24
5330,767,12,-1.25
5331,756,12,-2.21
5332,738,-8,-2.17
5333,715,-29,-2.15
5335,689,-22,-2.13
5336,657,-19,-2.11
5337,619,-18,-2.08
5338,579,20,-2.05
5340,536,22,-2.02
5341,488,-12,-1.99
5342,438,12,-1.96
5343,387,12,-1.91
5345,332,6,-0.87
5346,275,-26,-0.83
5347,217,-27,-0.79
5348,160,-18,-0.77
5350,101,20,-2.73
5351,43,18,-2.69
5352,-14,10,-1.66
5353,-72,12,-1.63
5355,-130,15,0.37
5356,-187,-15,0.37
5357,-242,-25,0.37
5358,-295,-17,-0.62
5360,-347,19,-0.61
5361,-396,17,-0.58
5362,-443,10,-0.55
5363,-487,3,0.47
5365,-528,8,0.49
5366,-566,6,0.51
5367,-601,7,0.52
5368,-634,5,0.53
5370,-663,5,-1.44
5371,-690,2,-1.41
5372,-713,-29,-1.39
5373,-735,-19,-1.37
5375,-753,-19,-1.35
5376,-770,-13,-0.34
5377,-784,-14,-0.33
5378,-797,28,-0.31
5380,-807,1,-0.29
5381,-816,-9,-0.27
5382,-824,34,-1.24
5383,-830,27,-1.21
5385,-834,13,-1.19
5386,-837,10,-1.17
5387,-840,-28,0.83
5388,-841,-19,0.83
5390,-841,-22,0.83
5391,-841,-17,0.83
5392,-840,-8,0.83
5393,-839,-4,-2.14
5395,-837,-3,-2.11
5396,-835,2,-2.08
5397,-832,4,-2.05
5398,-829,4,-2.02
5400,-826,3,1.97
5401,-823,2,1.96
5402,-819,3,1.95
5403,-816,2,1.94
5405,-813,3,-0.05
5406,-810,-1,-0.03
5407,-806,-1,-0.01
5408,-803,-1,0.01
5410,-800,2,0.03
5411,-796,2,1.02
5412,-793,-1,1.01
5413,-790,-2,1
5415,-787,0,0.99
5416,-784,1,1.97
5417,-781,1,1.95
5418,-779,0,1.93
5420,-776,0,1.91
5421,-773,2,2.88
5422,-770,0,2.85
5423,-768,1,2.82
5425,-765,-1,2.79
5426,-763,0,1.79
5427,-761,1,1.79
5428,-759,1,1.79
5430,-757,4,1.79
5431,-755,1,1.78
5432,-753,-1,1.77
5433,-752,-1,1.76
5435,-750,0,1.75
5436,-749,-1,2.73
5437,-747,-1,2.71
5438,-745,-3,2.69
5440,-743,0,2.67
5441,-741,0,1.63
5442,-740,1,1.59
5443,-738,2,1.55
5445,-736,3,1.51
5446,-734,1,3.48
5447,-732,1,3.45
5448,-730,0,3.42
5450,-728,3,3.39
5451,-726,1,1.37
5452,-724,-11,1.35
5453,-722,6,1.33
5455,-720,2,1.31
5456,-718,3,1.28
5457,-716,3,1.25
5458,-714,-3,1.22
5460,-713,34,1.19
5461,-711,28,2.15
5462,-710,21,2.11
5463,-708,14,2.07
5465,-707,13,2.03
5466,-705,4,0.01
5467,-704,-2,-0.01
5468,-702,-33,-0.03
5470,-700,-26,-0.04
5471,-699,-20,0.94
5472,-697,-11,0.92
5473,-696,14,0.9
5475,-694,12,0.86
5476,-692,12,0.82
5477,-691,8,0.79
5478,-689,-7,1.75
5480,-687,-27,1.73
5481,-686,-17,-1.26
5482,-684,23,-1.25
5483,-682,15,-1.25
5485,-681,10,-0.26
5486,-679,11,-0.27
5487,-677,7,-1.27
5488,-676,13,-1.26
5490,-674,-33,-1.25
5491,-672,-33,-1.24
5492,-671,-19,-1.23
5493,-669,-18,0.76
5495,-667,27,0.73
5496,-666,25,0.7
5497,-664,23,0.67
5498,-662,19,-2.33
5500,-661,14,-2.33
5501,-659,8,-2.32
5502,-658,1,-2.31
5503,-657,-2,-2.3
5505,-656,-17,0.68
5506,-654,-30,0.66
5507,-653,-26,0.63
5508,-652,-15,0.6
5510,-651,-10,0.57
5511,-650,-3,-1.44
5512,-648,-7,-1.43
5513,-647,3,-1.42
5515,-647,0,-1.41
5516,-646,0,-1.4
5517,-645,-3,-1.39
5518,-644,4,-1.41
5520,-643,5,-1.43
5521,-643,2,-1.45
5522,-642,4,-2.46
5523,-642,1,-2.47
5525,-642,-1,-2.44
5526,-641,4,-2.41
5527,-641,3,1.58
5528,-641,3,1.57
5530,-640,1,1.54
5531,-640,0,1.51
5532,-640,0,1.48
5533,-639,-1,-2.51
5535,-639,0,-2.5
5536,-638,-2,-2.48
5537,-638,0,-2.46
5538,-637,0,-2.44
5540,-637,4,-1.43
5541,-636,4,-1.41
5542,-636,4,-1.39
5543,-635,0,-1.37
5545,-635,-1,-1.35
5546,-634,-2,-2.31
5547,-634,2,-2.27
5548,-633,0,-2.23
5550,-633,1,-2.19
5551,-632,1,-4.14
5552,-632,1,-4.09
5553,-631,0,-4.04
5555,-630,1,-3.99
5556,-630,1,-3.94
5557,-629,0,-3.89
5558,-629,0,-3.84
5560,-628,0,-3.79
5561,-628,1,-2.74
5562,-628,2,-2.69
5563,-628,3,-2.64
5565,-628,1,-2.59
5566,-629,0,-3.54
5567,-629,0,-3.49
5568,-629,-2,-3.44
5570,-630,0,-3.39
5571,-630,-1,-3.32
5572,-631,-1,-3.25
5573,-631,0,-3.18
5575,-632,2,-3.11
5576,-632,1,-2.07
5577,-633,35,-2.03
5578,-633,17,-1.99
5580,-633,13,-3.93
5581,-634,13,-3.87
5582,-635,7,-3.81
5583,-635,-8,-5.73
5585,-636,-27,-5.65
5586,-637,-23,-5.56
5587,-638,14,-1.51
5588,-639,12,-1.46
5590,-640,8,-2.4
5591,-641,10,-2.36
5592,-642,7,-2.32
5593,-643,8,-2.28
5595,-644,-23,-2.24
5596,-645,-22,-2.19
5597,-646,-25,-2.14
5598,-647,-13,-3.08
5600,-648,15,-3.02
5601,-648,21,-2.96
5602,-649,19,-2.9
5603,-649,16,-2.83
5605,-650,12,-1.77
5606,-650,7,-1.74
5607,-650,6,-1.71
5608,-651,-2,-1.68
5610,-651,1,-1.64
5611,-651,1,-1.6
5612,-652,-35,-1.57
5613,-652,-30,-1.54
5615,-652,-21,-1.51
5616,-653,-14,-1.48
5617,-653,-7,-1.45
5618,-654,24,-1.4
5620,-654,27,-1.35
5621,-655,4,-1.3
5622,-656,20,-1.25
5623,-656,18,-1.23
5625,-657,14,-1.21
5626,-658,4,-1.19
5627,-660,0,-1.17
5628,-661,-2,-2.14
5630,-661,-32,-2.08
5631,-662,-21,-2.02
5632,-662,-18,-1.96
5633,-662,-13,-0.91
5635,-662,-11,-0.86
5636,-662,-6,-0.83
5637,-661,2,-0.8
5638,-661,3,-0.77
5640,-661,4,0.25
5641,-660,5,0.27
5642,-659,0,0.29
5643,-659,-10,0.31
5645,-658,2,0.33
5646,-657,2,0.35
5647,-657,1,0.36
5648,-656,5,0.37
5650,-655,5,0.38
5651,-655,2,-0.6
5652,-654,2,-0.54
5653,-653,0,-0.48
5655,-653,3,-0.42
5656,-652,3,1.62
5657,-652,-1,1.66
5658,-652,0,1.66
5660,-652,-2,1.66
5661,-653,1,0.67
5662,-653,-2,0.68
5663,-654,2,0.69
5665,-654,0,0.71
5666,-654,0,-0.26
5667,-654,0,-0.23
5668,-654,2,-0.2
5670,-654,0,-0.17
5671,-653,2,0.84
5672,-653,2,0.85
5673,-652,2,0.86
5675,-652,2,0.87
5676,-652,-1,0.86
5677,-651,1,0.85
5678,-651,-1,0.84
5680,-651,-1,0.83
5681,-650,1,1.81
5682,-650,5,1.79
5683,-650,1,1.77
5685,-649,-2,1.75
5686,-649,0,2.73
5687,-648,1,2.71
5688,-647,-1,2.69
5690,-647,1,2.67
5691,-645,1,2.64
5692,-644,-1,2.61
5693,-643,-1,2.58
5695,-642,0,2.55
5696,-641,0,2.52
5697,-639,37,2.49
5698,-637,25,2.46
5700,-635,13,1.44
5701,-633,4,1.43
5702,-631,3,1.42
5703,-629,0,1.41
5705,-626,-33,1.38
5706,-623,-30,1.35
5707,-620,-19,4.29
5708,-617,18,4.21
5710,-614,13,4.13
5711,-611,7,4.05
5712,-607,6,4.01
5713,-604,18,2.98
5715,-600,-24,2.94
5716,-597,-26,2.9
5717,-594,-19,2.86
5718,-590,-13,4.8
5720,-587,5,4.74
5721,-583,26,4.68
5722,-580,24,4.62
5723,-577,20,4.55
5725,-573,23,6.46
5726,-570,10,6.37
5727,-566,8,6.28
5728,-563,1,6.19
5730,-560,1,5.12
5731,-557,-1,5.05
5732,-553,-28,4.98
5733,-550,-29,4.91
5735,-547,-20,4.84
5736,-544,-11,4.77
5737,-541,-9,4.7
5738,-538,26,4.63
5740,-536,25,4.56
5741,-533,23,4.49
5742,-530,15,4.42
5743,-528,9,4.35
5745,-526,5,4.28
5746,-524,3,4.21
5747,-522,-5,4.14
5748,-521,0,4.07
5750,-519,-5,4
5751,-518,-34,3.93
5752,-517,-23,3.86
5753,-516,-19,3.78
5755,-515,-12,4.69
5756,-513,15,4.6
5757,-512,24,4.51
5758,-511,20,4.43
5760,-510,21,6.33
5761,-509,-11,6.23
5762,-509,-17,6.13
5763,-508,-13,6.03
5765,-507,-17,5.94
5766,-507,-15,4.86
5767,-506,-7,4.78
5768,-505,-4,4.7
5770,-505,1,4.62
5771,-504,1,4.54
5772,-503,-8,4.46
5773,-502,2,4.38
5775,-502,5,4.3
5776,-501,4,4.21
5777,-500,4,4.12
5778,-500,1,4.03
5780,-499,3,3.94
5781,-499,5,4.86
5782,-499,-1,4.78
5783,-498,-10,4.7
5785,-498,2,4.62
5786,-497,4,3.54
5787,-497,0,3.46
5788,-497,2,3.38
5790,-497,4,3.3
5791,-497,2,6.18
5792,-497,4,6.06
5793,-497,0,5.94
5795,-498,0,5.82
5796,-498,1,1.75
5797,-498,0,1.68
5798,-498,2,1.61
5800,-498,-1,1.54
5801,-498,0,3.45
5802,-499,0,3.36
5803,-499,-1,3.27
5805,-499,1,3.18
5806,-499,0,3.1
5807,-499,2,3.02
5808,-499,-3,2.94
5810,-499,2,2.86
5811,-499,1,2.79
5812,-500,1,2.72
5813,-500,0,2.65
5815,-501,1,2.58
5816,-501,3,1.52
5817,-502,3,1.46
5818,-503,1,1.4
5820,-504,2,1.34
5821,-504,0,1.28
5822,-505,1,1.22
5823,-506,-3,1.16
5825,-506,2,1.09
5826,-507,0,1.02
5827,-507,0,0.95
5828,-508,0,0.88
5830,-509,-2,0.81
5831,-509,2,0.74
5832,-510,-6,0.7
5833,-511,1,0.66
5835,-511,0,0.62
5836,-512,0,1.57
5837,-513,0,1.52
5838,-514,3,1.46
5840,-516,3,1.4
5841,-517,1,1.34
5842,-518,1,1.28
5843,-520,4,1.24
5845,-521,-2,1.2
5846,-523,1,1.16
5847,-525,33,1.12
5848,-526,17,1.08
5850,-528,16,-1.91
5851,-529,7,-1.9
5852,-531,8,-1.89
5853,-533,-5,0.1
5855,-534,-31,0.08
5856,-536,-24,0.06
5857,-538,15,2.02
5858,-539,8,1.98
5860,-541,8,-1.03
5861,-543,8,-1.04
5862,-545,3,-1.05
5863,-547,5,-1.06
5865,-550,-34,-1.07
5866,-552,-23,-1.08
5867,-554,-14,-1.09
5868,-557,-8,-0.11
5870,-559,0,-0.13
5871,-561,30,-0.15
5872,-563,29,-0.17
5873,-564,25,-0.19
5875,-566,19,0.78
5876,-568,12,0.75
5877,-569,4,0.72
5878,-571,-39,0.69
5880,-572,-30,-2.3
5881,-573,-21,-2.29
5882,-574,-10,-2.28
5883,-575,-7,-2.27
5885,-576,-3,-2.24
5886,-577,3,0.76
5887,-577,6,0.76
5888,-578,4,0.76
5890,-578,2,0.76
5891,-578,-2,-0.24
5892,-579,-5,-0.24
5893,-579,4,-0.24
5895,-579,-11,-0.24
5896,-579,4,-0.24
5897,-579,-3,0.75
5898,-579,6,0.74
5900,-579,5,0.73
5901,-579,3,0.72
5902,-579,3,-0.28
5903,-578,3,-0.28
5905,-578,1,-0.28
5906,-578,2,-0.27
5907,-578,-3,-0.26
5908,-578,1,0.74
5910,-578,4,0.74
5911,-578,2,0.73
5912,-578,-1,0.72
5913,-578,-2,0.71
5915,-578,-1,-0.29
5916,-578,0,-0.26
5917,-579,1,-0.23
5918,-579,1,-0.2
5920,-579,2,-0.17
5921,-579,3,0.81
5922,-579,0,0.79
5923,-578,0,0.77
5925,-577,2,0.75
5926,-577,0,-0.24
5927,-576,0,-0.23
5928,-575,0,-0.22
5930,-575,0,-0.21
5931,-574,1,0.79
5932,-574,1,0.79
5933,-574,0,0.79
5935,-573,1,0.79
5936,-573,2,0.79
5937,-573,0,0.79
5938,-574,-1,0.79
5940,-574,-10,0.79
5941,-575,3,-0.21
5942,-575,2,-0.21
5943,-576,1,-0.21
5945,-576,3,-0.21
5946,-577,2,-0.21
5947,-577,-2,-0.21
5948,-577,2,-0.21
5950,-578,0,-0.21
5951,-578,1,-2.19
5952,-579,4,-2.17
5953,-579,0,-2.15
5955,-580,6,-2.13
5956,-580,33,-0.13
5957,-581,27,-0.13
5958,-581,18,-0.13
5960,-581,8,-0.13
5961,-581,9,-0.12
5962,-582,-23,-0.11
5963,-582,-29,-0.1
5965,-582,-24,-0.09
5966,-582,-15,0.91
5967,-583,26,0.91
5968,-583,21,0.91
5970,-583,15,1.9
5971,-583,12,1.89
5972,-583,7,1.88
5973,-583,-14,2.86
5975,-584,-40,2.81
5976,-584,-23,1.77
5977,-584,11,1.73
5978,-584,20,1.71
5980,-585,8,-0.29
5981,-585,17,-0.29
5982,-586,9,0.72
5983,-586,16,0.73
5985,-587,-29,0.71
5986,-587,-33,0.69
5987,-588,-17,-1.31
5988,-588,-18,-1.31
5990,-589,22,-1.31
5991,-589,21,-1.31
5992,-590,-17,-1.31
5993,-590,27,-1.3
5995,-591,18,-1.29
5996,-591,12,-1.28
5997,-592,7,-1.27
5998,-592,2,-1.26
6000,-593,7,-1.24
6001,-593,6,-1.22
6002,-593,-33,-1.2
6003,-594,-22,-1.18
6005,-594,-21,-1.19
6006,-594,-14,0.78
6007,-594,-5,0.75
6008,-594,-7,0.72
6010,-594,-4,0.69
6011,-595,4,-1.29
6012,-595,5,-1.27
6013,-595,2,-1.25
6015,-595,1,-1.23
6016,-596,3,-1.22
6017,-596,0,0.77
6018,-596,1,0.76
6020,-597,-2,0.75
6021,-597,1,0.74
6022,-598,4,-1.24
6023,-598,1,-1.22
6025,-599,0,-1.2
6026,-599,0,-1.18
6027,-600,2,-1.17
6028,-601,2,-0.17
6030,-601,0,-0.17
6031,-602,-1,-0.17
6032,-603,0,-0.17
6033,-603,-2,-0.16
6035,-604,1,-0.15
6036,-604,0,-0.14
6037,-604,1,-0.13
6038,-604,0,-0.12
6040,-605,1,-0.12
6041,-605,2,-0.12
6042,-605,2,-0.12
6043,-606,3,-0.12
6045,-606,1,-0.12
6046,-607,-1,-2.09
6047,-608,2,-2.06
6048,-608,1,-2.03
6050,-609,-1,-2
6051,-611,-1,-0
6052,-612,0,-0
6053,-614,1,-0
6055,-616,-2,-0
6056,-619,1,-0.98
6057,-623,-1,-0.96
6058,-627,0,-0.94
6060,-632,0,-0.92
6061,-639,2,1.08
6062,-648,0,1.08
6063,-657,0,1.08
6065,-668,0,1.08
6066,-679,0,0.08
6067,-691,2,0.08
6068,-703,-1,0.08
6070,-715,2,0.08
6071,-727,3,-0.91
6072,-739,1,-0.9
6073,-751,39,-0.89
6075,-762,31,-0.88
6076,-771,30,0.1
6077,-778,14,0.08
6078,-783,11,0.06
6080,-787,2,0.04
6081,-786,-2,-0.95
6082,-781,-30,-0.94
6083,-772,-28,-0.93
6085,-755,-25,1.06
6086,-731,-19,1.05
6087,-702,-11,1.04
6088,-669,-8,1.03
6090,-627,32,1.02
6091,-577,28,1.02
6092,-522,22,1.02
6093,-463,17,1.02
6095,-397,8,0.04
6096,-328,7,0.06
6097,-255,-36,0.08
6098,-180,-25,0.11
6100,-106,-22,-0.85
6101,-33,-17,-0.82
6102,38,24,-0.79
6103,107,15,-0.76
6105,171,9,1.23
6106,229,14,1.22
6107,282,4,1.22
6108,326,4,2.21
6110,362,-36,2.2
6111,391,-18,2.19
6112,408,-20,2.16
6113,415,17,2.13
6115,410,11,1.11
6116,395,13,1.09
6117,372,13,1.07
6118,340,15,0.06
6120,301,-22,0.05
6121,256,-23,0.04
6122,207,-20,0.03
6123,155,-14,1.01
6125,99,-12,0.99
6126,42,26,0.97
6127,-14,23,0.95
6128,-72,4,-0.06
6130,-130,-12,-0.07
6131,-186,-6,-0.06
6132,-240,-8,-0.05
6133,-293,-7,-0.04
6135,-343,-7,1.95
6136,-390,-2,1.92
6137,-435,1,1.89
6138,-476,-1,1.86
6140,-515,-2,1.83
6141,-552,-1,1.8
6142,-585,9,1.79
6143,-616,2,1.78
6145,-644,1,1.77
6146,-670,3,1.76
6147,-693,3,1.73
6148,-715,-6,1.7
6150,-734,0,1.67
6151,-751,2,1.64
6152,-767,0,0.62
6153,-780,2,0.61
6155,-792,0,0.6
6156,-803,2,0.59
6157,-812,1,1.57
6158,-819,-2,1.55
6160,-825,2,1.53
6161,-829,0,1.51
6162,-832,-1,1.49
6163,-834,1,0.48
6165,-836,0,0.47
6166,-836,-1,0.46
6167,-836,0,0.45
6168,-836,-1,0.44
6170,-835,4,-0.56
6171,-834,1,-0.58
6172,-833,2,-0.6
6173,-831,2,-0.62
6175,-830,0,2.33
6176,-828,0,2.3
6177,-826,4,2.27
6178,-825,0,2.24
6180,-823,1,1.22
6181,-821,-1,1.19
6182,-819,1,1.16
6183,-818,-1,1.13
6185,-816,-1,0.11
6186,-815,-1,0.11
6187,-813,0,0.11
6188,-812,0,0.11
6190,-811,2,-1.87
6191,-810,2,-1.86
6192,-809,3,-1.85
6193,-807,2,-1.84
6195,-806,3,1.14
6196,-805,-1,1.11
6197,-804,1,1.08
6198,-803,-1,1.05
6200,-801,1,1.02
6201,-800,-1,1
6202,-798,0,0.98
6203,-797,-2,0.96
6205,-795,1,-0.05
6206,-793,1,-0.07
6207,-791,1,-0.09
6208,-789,0,-0.11
6210,-787,35,-0.11
6211,-784,26,-0.11
6212,-782,21,-0.11
6213,-779,14,-0.11
6215,-777,5,-2.09
6216,-774,2,-2.07
6217,-772,-26,-2.05
6218,-769,-28,-2.03
6220,-766,-23,0.95
6221,-762,-14,0.93
6222,-759,-9,0.91
6223,-755,25,0.89
6225,-750,15,-2.11
6226,-746,17,-2.11
6227,-741,10,-2.11
6228,-735,8,0.86
6230,-729,-26,0.85
6231,-723,-22,-1.14
6232,-717,-14,-1.13
6233,-712,18,-1.11
6235,-706,14,-0.1
6236,-701,16,-0.09
6237,-695,8,-0.08
6238,-690,13,-1.06
6240,-685,-21,-1.05
6241,-680,-26,-1.04
6242,-675,-17,-0.04
6243,-671,-15,-0.05
6245,-667,23,-0.06
6246,-663,28,-0.07
6247,-660,13,-0.08
6248,-656,18,-1.07
6250,-653,-18,-1.06
6251,-650,-15,-1.05
6252,-646,-13,-1.04
6253,-643,-13,-1.04
6255,-641,-12,-0.05
6256,-639,-5,-0.06
6257,-637,-3,-0.07
6258,-635,3,-0.08
6260,-634,0,-3.04
6261,-633,3,-3
6262,-632,-5,-2.96
6263,-631,2,-2.92
6265,-631,4,-2.88
6266,-630,-2,-0.86
6267,-631,3,-0.84
6268,-631,2,-0.82
6270,-631,-8,-0.8
6271,-632,5,-1.77
6272,-632,1,-1.74
6273,-632,1,-1.71
6275,-632,1,-1.68
6276,-632,2,-1.65
6277,-632,2,0.35
6278,-632,3,0.35
6280,-632,0,0.35
6281,-632,0,0.35
6282,-631,-2,0.36
6283,-631,2,-0.62
6285,-630,2,-0.6
6286,-630,-3,-0.58
6287,-629,-1,-0.56
6288,-628,0,0.44
6290,-627,2,0.44
6291,-626,0,0.44
6292,-625,-6,0.44
6293,-624,2,0.44
6295,-624,5,-0.56
6296,-623,2,-0.56
6297,-622,0,-0.56
6298,-621,4,-0.56
6300,-620,1,0.46
6301,-620,2,0.48
6302,-619,-1,0.5
6303,-619,-1,0.52
6305,-619,2,-0.46
6306,-618,1,-0.44
6307,-618,1,-0.42
6308,-618,0,-0.4
6310,-618,0,1.59
6311,-619,0,1.58
6312,-619,3,1.57
6313,-619,1,1.56
6315,-619,2,1.53
6316,-619,0,1.5
6317,-619,1,1.47
6318,-619,1,1.44
6320,-619,-2,0.45
6321,-619,-2,0.46
6322,-619,1,0.47
6323,-619,1,0.48
6325,-619,2,1.48
6326,-619,0,1.48
6327,-620,39,1.48
6328,-621,28,1.48
6330,-621,11,1.47
6331,-622,8,1.46
6332,-623,11,1.45
6333,-624,-3,1.44
6335,-624,-39,1.43
6336,-625,-28,2.41
6337,-626,-12,2.39
6338,-627,17,2.37
6340,-627,16,0.35
6341,-627,11,0.33
6342,-628,13,3.28
6343,-628,12,3.23
6345,-628,-20,3.21
6346,-628,-32,3.19
6347,-628,-23,2.18
6348,-628,-17,2.17
6350,-628,-11,2.13
6351,-628,29,2.09
6352,-628,14,2.05
6353,-628,8,-1.92
6355,-628,29,-1.89
6356,-628,21,-1.88
6357,-627,13,-1.87
6358,-627,6,-1.86
6360,-627,3,-2.83
6361,-626,1,-2.8
6362,-626,-36,-2.77
6363,-625,-29,-2.75
6365,-625,-22,-2.73
6366,-624,-13,1.25
6367,-623,-10,1.24
6368,-623,25,1.23
6370,-622,28,1.22
6371,-622,22,1.21
6372,-621,13,1.2
6373,-621,15,1.18
6375,-620,7,1.16
6376,-620,7,1.14
6377,-620,-1,1.12
6378,-620,-6,1.1
6380,-619,-30,1.09
6381,-619,-27,1.08
6382,-619,-23,1.07
6383,-619,-13,0.07
6385,-619,-2,0.04
6386,-619,-3,0.01
6387,-618,-3,-0.02
6388,-618,1,-0.05
6390,-618,3,-0.08
6391,-617,0,-0.09
6392,-617,0,-0.1
6393,-616,3,-0.11
6395,-616,3,1.86
6396,-615,2,1.82
6397,-614,1,1.78
6398,-613,1,1.74
6400,-613,1,0.71
6401,-612,0,0.68
6402,-611,2,0.67
6403,-611,0,0.66
6405,-610,-4,0.65
6406,-610,-1,0.64
6407,-609,2,0.63
6408,-609,4,0.61
6410,-609,2,2.57
6411,-608,1,2.53
6412,-608,3,2.49
6413,-608,1,2.46
6415,-608,1,0.45
6416,-608,1,0.44
6417,-608,0,0.43
6418,-608,-1,0.42
6420,-608,-1,1.39
6421,-608,-2,1.36
6422,-607,1,1.33
6423,-606,-1,1.3
6425,-606,-3,0.29
6426,-605,-1,0.28
6427,-604,3,0.27
6428,-603,2,0.26
6430,-603,0,0.24
6431,-602,-2,0.22
6432,-601,0,0.2
6433,-601,1,0.18
6435,-601,2,2.16
6436,-600,0,2.14
6437,-600,2,2.12
6438,-599,2,2.1
6440,-599,1,1.09
6441,-599,-1,1.08
6442,-599,1,1.07
6443,-599,-3,1.06
6445,-598,1,1.04
6446,-598,3,1.02
6447,-599,30,1
6448,-599,27,0.98
6450,-599,16,0.97
6451,-599,11,0.96
6452,-600,6,0.95
6453,-600,0,0.94
6455,-601,-28,0.93
6456,-602,-26,-2.05
6457,-603,-22,-2.03
6458,-603,16,-2.01
6460,-604,13,-0.01
6461,-604,14,-0
6462,-605,12,1
6463,-605,11,1
6465,-605,-26,0.98
6466,-606,-21,0.96
6467,-606,-19,0.97
6468,-606,-18,0.98
6470,-606,-11,0.99
6471,-606,27,1
6472,-606,29,1
6473,-606,-14,1
6475,-606,20,1
6476,-605,23,1
6477,-605,17,1
6478,-605,9,0.96
6480,-604,3,-1.06
6481,-604,1,-1.08
6482,-604,-24,-1.1
6483,-603,-28,-1.12
6485,-603,-23,-1.15
6486,-603,-12,1.79
6487,-602,-8,1.73
6488,-602,30,1.67
6490,-602,28,1.61
6491,-602,20,-2.37
6492,-602,17,-2.35
6493,-601,6,-2.33
6495,-601,10,-2.31
6496,-601,1,-2.29
6497,-601,-1,1.69
6498,-601,-3,1.67
6500,-601,1,1.65
6501,-601,-36,1.63
6502,-601,-27,1.61
6503,-601,-24,-0.39
6505,-601,-14,-0.39
6506,-601,-4,-0.39
6507,-601,-7,-0.39
6508,-601,-4,-0.4
6510,-600,5,-1.4
6511,-600,7,-1.4
6512,-599,4,-1.4
6513,-599,5,-1.4
6515,-598,1,1.57
6516,-597,1,1.54
6517,-597,5,1.51
6518,-596,-1,1.48
6520,-595,2,1.47
6521,-595,0,1.46
6522,-594,2,1.45
6523,-593,1,1.44
6525,-593,2,1.42
6526,-592,-2,1.4
6527,-591,2,1.38
6528,-590,1,1.36
6530,-589,1,0.35
6531,-588,-3,0.34
6532,-588,1,0.33
6533,-587,-2,0.32
6535,-586,3,2.31
6536,-586,0,2.3
6537,-585,-4,2.29
6538,-584,1,2.28
6540,-583,3,1.26
6541,-582,-1,1.24
6542,-582,2,1.22
6543,-581,3,1.2
6545,-581,-2,2.18
6546,-580,2,2.16
6547,-580,0,2.14
6548,-579,-5,2.12
6550,-579,3,1.1
6551,-579,0,1.08
6552,-579,1,1.06
6553,-578,3,1.04
6555,-578,1,-0.96
6556,-578,-1,-0.96
6557,-577,2,-0.96
6558,-577,0,-0.96
6560,-577,0,-0.94
6561,-576,-4,-0.92
6562,-576,1,-0.9
6563,-576,2,-0.88
6565,-576,0,2.1
6566,-576,1,2.08
6567,-575,57,2.06
6568,-575,26,2.04
6570,-574,17,2.02
6571,-574,7,2
6572,-573,-7,0.99
6573,-573,-12,0.98
6575,-572,-33,0.97
6576,-572,-23,1.95
6577,-572,-14,1.93
6578,-571,17,1.91
6580,-571,12,3.87
6581,-570,4,3.8
6582,-569,9,3.73
6583,-569,6,3.66
6585,-568,-27,3.61
6586,-567,-30,3.56
6587,-566,-17,0.55
6588,-565,-11,0.54
6590,-564,-6,0.53
6591,-563,21,0.52
6592,-562,15,0.51
6593,-562,8,1.49
6595,-561,26,1.47
6596,-561,17,1.45
6597,-561,14,1.43
6598,-561,10,1.41
6600,-561,2,1.39
6601,-561,1,1.37
6602,-562,-36,1.35
6603,-562,-22,1.33
6605,-563,-26,1.29
6606,-563,-10,1.25
6607,-563,-7,1.21
6608,-563,29,1.17
6610,-563,24,1.13
6611,-563,18,3.1
6612,-563,19,3.07
6613,-563,15,3.04
6615,-563,7,3.01
6616,-562,4,2.94
6617,-562,-6,0.89
6618,-561,-4,0.84
6620,-561,-3,0.79
6621,-560,-33,0.74
6622,-560,-28,0.73
6623,-559,-23,0.72
6625,-558,-9,0.71
6626,-557,-7,0.7
6627,-556,30,0.69
6628,-556,27,0.66
6630,-555,-11,1.62
6631,-554,25,1.58
6632,-553,16,1.54
6633,-552,11,1.5
6635,-551,-23,0.46
6636,-550,-20,0.42
6637,-549,-12,0.38
6638,-548,-8,0.34
6640,-548,-5,1.32
6641,-547,-4,1.3
6642,-546,1,1.28
6643,-545,2,1.26
6645,-544,-1,0.25
6646,-543,0,0.24
6647,-543,2,0.23
6648,-542,2,0.22
6650,-541,3,0.21
6651,-541,3,0.2
6652,-540,3,0.19
6653,-540,2,0.18
6655,-540,-2,0.16
6656,-540,0,0.14
6657,-539,3,0.12
6658,-539,0,0.1
6660,-539,1,-0.89
6661,-539,1,-0.88
6662,-538,1,-0.87
6663,-538,-1,-0.86
6665,-538,1,1.12
6666,-539,-1,1.1
6667,-539,-4,1.08
6668,-539,1,1.06
6670,-539,1,3.03
6671,-539,0,3
6672,-539,5,2.97
6673,-539,-2,2.94
6675,-539,2,0.92
6676,-538,-1,0.9
6677,-538,1,0.88
6678,-538,0,0.86
6680,-538,1,0.82
6681,-538,0,0.78
6682,-537,-1,0.74
6683,-537,-1,0.7
6685,-537,-3,0.66
6686,-537,1,0.62
6687,-537,5,0.58
6688,-537,2,0.54
6690,-537,4,-0.46
6691,-537,2,-0.46
6692,-537,0,-0.46
6693,-537,2,-0.46
6695,-537,-1,-0.46
6696,-537,-2,-0.46
6697,-537,0,-0.47
6698,-537,0,-0.48
6700,-537,-2,-2.47
6701,-537,4,-2.45
6702,-537,0,-2.43
6703,-537,2,-2.41
6705,-538,-1,-1.38
6706,-538,35,-1.35
6707,-538,26,-1.32
6708,-538,21,-1.29
6710,-538,17,-1.26
6711,-538,10,-1.23
6712,-538,-27,-1.23
6713,-538,-27,-1.23
6715,-538,-21,-1.23
6716,-538,-19,-1.23
6717,-538,19,-1.23
6718,-538,16,-1.22
6720,-538,20,-4.18
6721,-538,9,-4.14
6722,-538,9,-4.1
6723,-538,-22,-4.06
6725,-537,-20,-4.02
6726,-537,-25,-2
6727,-537,-7,-1.98
6728,-537,21,-1.96
6730,-538,13,-2.93
6731,-538,12,-2.9
6732,-538,16,-0.89
6733,-539,3,-0.88
6735,-539,-22,-0.87
6736,-539,-27,-0.84
6737,-540,-28,-2.79
6738,-540,-12,-2.74
6740,-541,-15,-2.69
6741,-541,27,-2.64
6742,-542,26,-2.61
6743,-542,22,-3.57
6745,-542,21,-3.53
6746,-542,12,-3.49
6747,-542,6,-3.45
6748,-542,7,-3.41
6750,-542,-3,-2.38
6751,-542,-2,-2.35
6752,-542,-24,-2.32
6753,-541,-26,-2.29
6755,-541,-21,-1.26
6756,-540,-14,-1.23
6757,-540,-5,-1.2
6758,-540,-2,-1.17
6760,-540,-2,-1.15
6761,-539,3,-3.11
6762,-539,-1,-3.07
6763,-538,3,-3.03
6765,-538,5,-2.98
6766,-537,4,-1.94
6767,-536,1,-1.9
6768,-536,-4,-1.86
6770,-535,-2,-1.83
6771,-534,1,-1.8
6772,-533,2,-4.74
6773,-533,5,-4.68
6775,-533,-8,-4.62
6776,-533,3,-4.56
6777,-533,0,0.45
6778,-534,-1,0.46
6780,-534,6,0.47
6781,-534,4,0.48
6782,-535,-1,0.49
6783,-535,4,-1.48
6785,-535,-1,-1.46
6786,-534,1,-1.44
6787,-534,-1,-1.42
6788,-533,2,-1.4
6790,-532,0,-1.36
6791,-532,1,-1.32
6792,-531,0,-1.28
6793,-530,0,-1.24
6795,-530,-1,-0.19
6796,-530,0,-0.14
6797,-529,0,-0.09
6798,-529,-1,-0.04
6800,-529,2,-1
6801,-529,3,-0.96
6802,-529,-1,-0.92
6803,-530,3,-0.88
6805,-530,-1,0.15
6806,-530,1,0.18
6807,-530,-1,0.21
6808,-531,2,0.24
6810,-531,4,0.27
6811,-531,1,0.3
6812,-532,-3,0.33
6813,-532,0,0.36
6815,-533,1,-0.61
6816,-533,0,-0.58
6817,-533,1,-0.55
6818,-534,1,-0.52
6820,-534,1,0.5
6821,-534,0,0.52
6822,-534,-4,0.54
6823,-535,2,0.56
6825,-535,33,-0.43
6826,-535,25,-0.42
6827,-535,18,-0.41
6828,-535,12,-0.4
6830,-535,8,0.61
6831,-535,1,0.62
6832,-534,-13,0.63
6833,-534,-28,0.64
6835,-534,-24,0.65
6836,-534,-17,0.66
6837,-533,-16,0.67
6838,-533,31,0.68
6840,-532,16,-0.3
6841,-532,-25,-0.28
6842,-531,20,-0.26
6843,-530,11,-0.24
6845,-530,9,1.73
6846,-529,-29,1.7
6847,-529,-22,1.67
6848,-528,-14,1.64
6850,-527,22,1.61
6851,-526,13,2.59
6852,-526,9,2.57
6853,-525,9,2.55
6855,-524,18,1.53
6856,-524,-20,1.51
6857,-523,-16,0.52
6858,-523,-20,0.53
6860,-522,20,0.54
6861,-522,14,0.55
6862,-521,11,1.53
6863,-521,4,1.51
6865,-520,14,1.49
6866,-520,2,1.47
6867,-519,-25,0.46
6868,-519,-29,0.44
6870,-518,-17,0.42
6871,-517,-6,0.4
6872,-517,-7,0.38
6873,-517,-9,0.36
6875,-516,4,0.35
6876,-516,8,0.34
6877,-515,38,0.33
6878,-515,-7,0.32
6880,-514,29,-1.66
6881,-513,-3,-1.64
6882,-513,-11,-1.62
6883,-511,-11,-1.6
6885,-510,-9,-0.59
6886,-509,-6,-0.6
6887,-508,-4,-0.61
6888,-506,-6,-0.62
6890,-505,-2,-0.63
6891,-504,-2,-0.63
6892,-503,-3,-0.63
6893,-502,-1,-0.63
6895,-501,1,-0.63
6896,-500,5,-0.63
6897,-500,-4,1.32
6898,-499,-7,1.27
6900,-498,3,1.22
6901,-498,3,1.17
6902,-497,8,0.18
6903,-496,3,0.19
6905,-496,3,0.2
6906,-495,-5,0.21
6907,-494,7,0.22
6908,-493,3,0.21
6910,-492,-2,0.2
6911,-491,4,0.19
6912,-489,1,0.18
6913,-488,-7,0.17
6915,-487,3,-0.83
6916,-486,4,-0.83
6917,-485,1,-0.83
6918,-485,3,-0.83
6920,-484,-1,-0.82
6921,-484,3,-0.81
6922,-483,-3,-0.8
6923,-483,0,-0.79
6925,-483,-3,0.2
6926,-483,1,0.19
6927,-483,1,0.18
6928,-482,4,0.17
6930,-482,3,-0.82
6931,-482,4,-0.81
6932,-482,-1,-0.8
6933,-482,0,-0.79
6935,-483,-2,-1.77
6936,-483,1,-1.75
6937,-483,0,-1.73
6938,-483,-2,-1.71
6940,-483,0,-2.69
6941,-484,3,-2.67
6942,-484,-3,-2.65
6943,-484,1,-2.63
6945,-484,2,-0.62
6946,-485,3,-0.61
6947,-485,2,-0.6
6948,-485,-2,-0.59
6950,-485,-2,-0.59
6951,-486,1,-0.59
6952,-486,2,-0.59
6953,-486,-4,-0.59
6955,-486,-2,-1.57
6956,-486,0,-1.55
6957,-486,0,-1.53
6958,-486,29,-1.51
6960,-486,28,-1.49
6961,-486,20,-1.47
6962,-487,16,-1.45
6963,-487,13,-1.43
6965,-487,5,-2.41
6966,-487,0,-2.39
6967,-487,-31,-2.37
6968,-487,-32,-2.35
6970,-487,-21,-3.3
6971,-486,-11,-3.25
6972,-486,14,-3.2
6973,-486,14,-3.15
6975,-486,10,-0.13
6976,-485,15,-0.1
6977,-485,4,-2.05
6978,-485,-20,-2
6980,-485,-38,-1.96
6981,-486,-28,-2.91
6982,-486,-10,-2.87
6983,-486,27,-2.83
6985,-486,18,-1.8
6986,-486,16,-1.77
6987,-486,17,-1.73
6988,-486,9,-1.69
6990,-486,-9,-1.65
6991,-486,-30,-1.61
6992,-486,-24,0.4
6993,-486,-17,0.41
6995,-486,-14,0.42
6996,-485,27,0.43
6997,-485,31,0.44
6998,-484,19,-3.51
7000,-484,24,-3.46
7001,-483,7,-3.41
7002,-483,6,-3.36
7003,-482,5,-3.31
7005,-482,-38,-1.3
7006,-481,-23,-1.29
7007,-481,-18,-1.28
7008,-480,-13,-1.27
7010,-480,-10,-1.25
7011,-480,-1,-1.23
7012,-479,5,-1.21
7013,-479,6,-1.19
7015,-479,5,-1.17
7016,-479,7,-2.14
7017,-479,9,-2.11
7018,-479,-1,-2.08
7020,-479,-1,-2.05
7021,-479,3,-1.03
7022,-479,1,-0.99
7023,-479,5,-0.95
7025,-479,5,-0.91
7026,-479,3,-0.87
7027,-479,-1,-0.84
7028,-478,0,-0.81
7030,-478,1,-0.78
7031,-477,2,-0.75
7032,-476,-4,-0.72
7033,-475,-1,0.3
7035,-474,0,0.32
7036,-473,4,0.34
7037,-473,2,0.36
7038,-472,5,0.38
7040,-471,-2,0.39
7041,-471,5,0.4
7042,-470,3,0.41
7043,-470,3,0.42
7045,-469,2,-1.55
7046,-469,2,-1.52
7047,-469,0,-1.49
7048,-469,2,-1.46
7050,-469,2,-2.41
7051,-469,-1,-2.36
7052,-469,-4,-2.31
7053,-469,-2,-2.26
7055,-470,-6,-1.23
7056,-470,3,-1.2
7057,-470,0,-1.17
7058,-470,-1,-1.14
7060,-470,1,-1.12
7061,-470,3,-1.1
7062,-470,-1,-1.08
7063,-470,4,-1.06
7065,-470,1,-1.05
7066,-470,1,-1.04
7067,-470,2,-1.03
7068,-470,-1,-1.02
7070,-470,1,-0
7071,-470,2,0.02
7072,-470,1,0.04
7073,-469,0,0.06
7075,-469,0,-1.9
7076,-469,1,-1.86
7077,-470,6,-1.82
7078,-470,21,-1.78
7080,-470,16,-0.76
7081,-470,11,-0.74
7082,-470,11,0.27
7083,-471,-7,0.28
7085,-471,-36,0.29
7086,-471,-19,-0.69
7087,-471,-9,-0.67
7088,-471,19,-0.65
7090,-471,9,-0.64
7091,-471,15,-0.63
7092,-470,14,-0.62
7093,-470,13,-0.61
7095,-469,-16,-0.61
7096,-469,-28,-0.61
7097,-469,-22,1.37
7098,-468,-15,1.35
7100,-468,7,1.36
7101,-467,29,1.37
7102,-467,22,-0.62
7103,-466,20,-0.61
7105,-465,14,-0.6
7106,-465,12,-0.6
7107,-464,5,-0.6
7108,-464,1,-2.58
7110,-463,2,-2.55
7111,-463,-2,-2.52
7112,-462,-27,-2.49
7113,-462,-27,-2.46
7115,-462,-23,0.54
7116,-462,-12,0.54
7117,-462,-21,0.56
7118,-461,22,0.58
7120,-461,29,0.6
7121,-461,-12,-1.36
7122,-461,15,-1.32
7123,-461,20,-1.32
7125,-461,13,-1.32
7126,-461,13,-0.33
7127,-461,2,-0.34
7128,-460,0,-0.35
7130,-460,-19,-0.34
7131,-460,-25,-0.33
7132,-459,-19,-3.29
7133,-459,-8,-3.25
7135,-459,-5,-3.21
7136,-458,1,-3.17
7137,-458,0,-1.15
7138,-458,0,-1.13
7140,-458,0,-1.11
7141,-458,0,-1.1
7142,-458,-1,-1.09
7143,-457,1,-2.07
7145,-457,3,-2.05
7146,-457,1,-2.02
7147,-457,3,-1.99
7148,-456,0,-1.96
7150,-456,0,1.04
7151,-456,4,1.04
7152,-456,0,1.04
7153,-456,0,1.04
7155,-456,1,-1.93
7156,-457,-3,-1.9
7157,-457,-2,-1.87
7158,-458,2,-1.83
7160,-458,3,-1.79
7161,-459,4,-1.75
7162,-459,2,-1.71
7163,-459,3,-1.67
7165,-460,1,-2.62
7166,-460,2,-2.57
7167,-460,-10,-2.52
7168,-461,-1,-2.47
7170,-461,-1,-2.44
7171,-462,2,-2.41
7172,-462,3,-2.38
7173,-463,3,-2.35
7175,-463,1,-3.32
7176,-464,4,-3.29
7177,-464,4,-3.26
7178,-465,2,-3.23
7180,-465,2,-1.21
7181,-466,3,-1.19
7182,-466,-11,-1.17
7183,-466,-1,-1.15
7185,-466,3,-3.11
7186,-467,2,-3.07
7187,-467,1,-3.03
7188,-467,3,-2.99
7190,-467,3,-0.97
7191,-466,-2,-0.95
7192,-466,2,-0.93
7193,-465,2,-0.91
7195,-465,0,-2.86
7196,-464,2,-2.81
7197,-463,41,-2.76
7198,-462,26,-2.71
7200,-461,18,-2.68
7201,-459,10,-2.65
7202,-458,4,-2.62
7203,-457,-15,-2.59
7205,-455,-30,-2.55
7206,-454,-27,1.45
7207,-452,-17,1.46
7208,-451,19,1.47
7210,-450,16,-1.49
7211,-448,13,-1.46
7212,-447,11,0.55
7213,-445,10,0.56
7215,-444,-22,0.57
7216,-443,-27,0.58
7217,-442,-24,-2.38
7218,-441,-18,-2.34
7220,-441,-12,-2.3
7221,-440,30,-2.26
7222,-440,27,-0.22
7223,-440,23,-0.18
7225,-440,24,-0.14
7226,-440,15,-0.1
7227,-439,8,-0.08
7228,-439,3,0.93
7230,-439,0,0.94
7231,-439,1,0.95
7232,-438,-14,0.96
7233,-437,-33,0.95
7235,-437,-29,-2.03
7236,-436,-16,-2.01
7237,-435,-16,-1.99
7238,-434,10,-1.97
7240,-434,26,-1.92
7241,-433,22,-0.88
7242,-432,22,-0.84
7243,-431,13,-0.8
7245,-431,3,-0.76
7246,-430,3,-0.74
7247,-430,-2,-0.72
7248,-429,0,-0.7
7250,-429,1,-0.68
7251,-430,-32,-0.65
7252,-430,-27,-0.62
7253,-430,-18,-1.58
7255,-431,-15,-1.54
7256,-432,-5,-1.5
7257,-432,27,-1.49
7258,-433,25,0.5
7260,-434,-6,0.49
7261,-435,-15,0.48
7262,-436,-9,0.49
7263,-437,-5,0.5
7265,-438,-9,0.51
7266,-438,-8,0.52
7267,-439,0,0.53
7268,-439,2,0.53
7270,-440,7,0.53
7271,-440,3,0.53
7272,-441,-5,0.53
7273,-441,-1,0.53
7275,-442,2,-2.41
7276,-442,-3,-2.35
7277,-443,2,-2.29
7278,-444,0,-2.23
7280,-445,6,-1.21
7281,-446,3,-1.19
7282,-447,2,-1.17
7283,-448,-5,-1.15
7285,-449,2,-2.12
7286,-450,6,-2.09
7287,-451,0,-2.06
7288,-452,-1,-2.03
7290,-453,5,-0.03
7291,-454,-3,-0.03
7292,-455,-1,-0.03
7293,-457,0,-0.03
7295,-458,0,-1.02
7296,-459,2,-1.01
7297,-460,1,-1
7298,-462,0,-0.99
7300,-463,-1,-0.99
7301,-465,1,-0.99
7302,-466,-1,-0.99
7303,-468,-2,-0.99
7305,-470,4,0.02
7306,-472,3,0.03
7307,-474,4,0.04
7308,-475,2,0.05
7310,-477,2,-1.94
7311,-479,1,-1.93
7312,-480,3,-1.92
7313,-482,-3,-1.91
7315,-484,0,-0.89
7316,-485,1,-0.87
7317,-487,-3,-0.85
7318,-488,0,-0.83
7320,-490,3,0.16
7321,-492,1,0.15
7322,-494,-1,0.14
7323,-496,-2,0.13
7325,-499,-1,0.12
7326,-501,-2,0.11
7327,-503,0,0.1
7328,-505,-2,0.09
7330,-507,-1,0.08
7331,-508,3,0.11
7332,-510,27,0.14
7333,-511,29,0.17
7335,-512,17,-1.81
7336,-513,9,-1.79
7337,-513,4,1.22
7338,-513,-9,1.23
7340,-513,-29,1.24
7341,-513,-26,-1.72
7342,-513,-4,-1.71
7343,-512,20,-1.7
7345,-510,16,0.29
7346,-508,11,0.28
7347,-505,11,0.29
7348,-501,9,0.3
7350,-497,-29,0.31
7351,-493,-26,-0.67
7352,-488,-19,-0.65
7353,-483,-12,-0.62
7355,-479,-6,-0.59
7356,-474,34,-0.56
7357,-470,25,1.45
7358,-465,-6,1.46
7360,-462,23,1.44
7361,-458,14,1.42
7362,-454,12,1.4
7363,-451,7,0.39
7365,-448,0,0.38
7366,-446,0,0.38
7367,-443,-8,0.38
7368,-441,-29,0.38
7370,-439,-26,-0.61
7371,-437,-16,-0.6
7372,-435,-8,-0.59
7373,-433,22,-0.58
7375,-431,24,-0.57
7376,-429,20,-0.56
7377,-427,17,-0.55
7378,-425,-19,-0.55
7380,-424,-18,-0.55
7381,-422,-17,-0.55
7382,-421,-15,-0.55
7383,-419,-8,-0.53
7385,-418,-5,-0.51
7386,-417,0,-0.49
7387,-416,0,-0.47
7388,-415,4,-0.45
7390,-414,1,-0.43
7391,-414,0,-0.41
7392,-414,5,-0.39
7393,-415,-2,-0.37
7395,-415,0,-0.35
7396,-416,2,-0.33
7397,-417,5,-0.31
7398,-418,2,-0.29
7400,-419,-3,-0.3
7401,-421,1,-0.31
7402,-422,3,-0.32
7403,-424,3,0.66
7405,-426,-2,0.65
7406,-428,1,0.64
7407,-430,1,0.63
7408,-431,-4,-0.37
7410,-433,1,-0.38
7411,-434,-2,-0.39
7412,-436,1,-0.4
7413,-437,0,-0.41
7415,-438,0,-0.4
7416,-439,3,-0.39
7417,-439,0,-0.38
7418,-440,-2,-0.37
7420,-441,2,-0.37
7421,-441,3,-0.37
7422,-441,0,-0.37
7423,-442,-9,-0.37
7425,-442,1,-0.37
7426,-442,4,-0.37
7427,-442,-1,-0.37
7428,-441,2,0.62
7430,-441,5,0.62
7431,-440,3,0.62
7432,-440,0,0.62
7433,-440,0,0.62
7435,-440,2,0.6
7436,-440,4,0.58
7437,-440,-2,0.56
7438,-441,0,0.54
7440,-442,1,0.53
7441,-442,4,0.52
7442,-443,0,0.51
7443,-444,0,-2.47
7445,-445,-3,-2.44
7446,-446,-1,-2.41
7447,-447,-1,-2.38
7448,-448,3,-1.36
7450,-449,2,-1.34
7451,-450,2,-1.32
7452,-451,1,-1.3
7453,-453,0,-0.29
7455,-455,-17,-0.28
7456,-458,34,-0.27
7457,-460,36,-0.26
7458,-463,20,-1.24
7460,-465,18,-1.24
7461,-468,14,-1.24
7462,-471,5,-1.21
7463,-474,-30,-1.18
7465,-476,-28,-1.15
7466,-479,-19,-1.15
7467,-481,-9,-1.15
7468,-484,12,-0.16
7470,-486,11,-0.15
7471,-488,13,-0.14
7472,-490,9,-0.13
7473,-492,-5,-0.12
7475,-494,-19,-0.11
7476,-495,-19,-0.11
7477,-497,-14,-0.11
7478,-498,16,-0.11
7480,-499,16,-1.1
7481,-500,10,-1.09
7482,-501,13,-2.05
7483,-502,9,-2.01
7485,-503,-29,-1.97
7486,-504,-25,-2.92
7487,-505,-21,-2.87
7488,-506,-11,-2.83
7490,-507,-13,-2.79
7491,-508,35,-2.75
7492,-509,26,-1.72
7493,-510,28,-1.69
7495,-511,19,-1.67
7496,-511,14,-1.65
7497,-512,7,-1.63
7498,-512,6,0.37
7500,-513,-4,0.37
7501,-513,2,0.37
7502,-514,-31,0.37
7503,-514,-28,-0.62
7505,-515,-26,-0.61
7506,-515,-15,-0.6
7507,-515,-8,-0.59
7508,-515,-4,-0.58
7510,-515,2,-0.57
7511,-515,4,-0.56
7512,-515,1,-0.55
7513,-514,4,-0.54
7515,-514,-1,-0.53
7516,-514,1,0.47
7517,-514,-2,0.47
7518,-514,-1,0.47
7520,-513,1,0.47
7521,-513,1,-2.5
7522,-513,3,-2.47
7523,-513,6,-2.44
7525,-513,-2,-2.41
7526,-513,-1,-2.38
7527,-512,-2,-2.35
7528,-512,0,-2.31
7530,-512,0,-2.27
7531,-511,3,-2.23
7532,-511,2,-0.21
7533,-510,-1,-0.2
7535,-510,3,-0.19
7536,-509,-4,-0.18
7537,-509,3,-0.17
7538,-510,4,1.82
7540,-512,1,1.81
7541,-515,5,1.8
7542,-519,-2,1.79
7543,-524,-5,2.77
7545,-531,2,2.75
7546,-539,0,2.73
7547,-548,2,2.71
7548,-557,1,0.71
7550,-566,3,0.71
7551,-575,4,0.71
7552,-584,-3,0.71
7553,-593,0,-0.27
7555,-601,-2,-0.25
7556,-608,1,-0.23
7557,-615,1,-0.21
7558,-618,1,-1.18
7560,-619,3,-1.15
7561,-618,3,-1.12
7562,-615,1,-1.09
7563,-606,1,0.92
7565,-592,0,0.93
7566,-574,-3,0.94
7567,-554,-1,0.95
7568,-525,-2,0.93
7570,-490,2,0.91
7571,-451,3,0.89
7572,-408,-4,0.87
7573,-357,-2,-0.13
7575,-300,33,-0.13
7576,-239,23,-0.13
7577,-174,21,-0.13
7578,-105,16,2.85
7580,-33,11,2.83
7581,40,9,2.81
7582,115,-3,2.79
7583,190,-33,1.77
7585,264,-20,1.75
7586,337,-14,1.73
7587,407,-4,1.71
7588,472,7,1.69
7590,533,12,1.67
7591,589,7,1.65
7592,638,8,0.64
7593,679,-6,0.64
7595,711,-34,0.64
7596,735,-18,0.64
7597,752,-7,0.64
7598,762,12,0.64
7600,763,12,-0.35
7601,756,16,-0.34
7602,739,21,-0.33
7603,713,10,-0.32
7605,682,-20,-0.32
7606,642,-26,0.67
7607,597,-20,0.65
7608,547,-13,0.63
7610,494,-16,0.61
7611,439,30,0.58
7612,381,25,0.55
7613,322,29,0.52
7615,261,-17,0.49
7616,201,21,0.46
7617,141,12,0.44
7618,82,2,-0.57
7620,24,-2,-0.58
7621,-33,3,-0.59
7622,-88,-2,-0.6
7623,-141,-25,-0.59
7625,-192,-23,-0.58
7626,-241,-7,-0.57
7627,-289,-17,-0.56
7628,-333,31,-0.56
7630,-376,-10,-0.56
7631,-417,9,-0.56
7632,-455,26,-0.56
7633,-491,18,-0.56
7635,-525,12,-0.56
7636,-556,-15,-0.56
7637,-585,-25,-0.56
7638,-611,-17,-0.56
7640,-636,-14,-0.56
7641,-658,-9,-0.55
7642,-678,-9,-0.54
7643,-695,-2,-0.53
7645,-711,2,-0.52
7646,-724,1,-0.54
7647,-736,6,-0.56
7648,-746,5,-0.58
7650,-756,-4,-0.6
7651,-764,-1,-0.62
7652,-770,0,0.35
7653,-776,-2,0.32
7655,-781,-2,0.29
7656,-785,5,0.26
7657,-788,2,0.25
7658,-790,7,-0.75
7660,-791,2,-0.75
7661,-792,3,-0.75
7662,-792,-1,-0.75
7663,-792,-2,0.26
7665,-791,3,0.27
7666,-791,-3,0.28
7667,-790,1,0.29
7668,-788,2,0.31
7670,-786,0,0.33
7671,-784,3,0.35
7672,-782,-5,0.37
7673,-780,1,1.36
7675,-777,0,1.35
7676,-775,3,1.34
7677,-772,-2,1.33
7678,-769,-3,-0.67
7680,-767,2,-0.67
7681,-764,-4,-0.67
7682,-762,-1,-0.67
7683,-759,4,-1.67
7685,-757,-2,-1.67
7686,-754,0,-1.67
7687,-752,-1,-1.67
7688,-750,0,-0.66
7690,-747,1,-0.65
7691,-745,3,-0.64
7692,-743,5,-0.63
7693,-741,-3,1.36
7695,-738,3,1.35
7696,-736,1,1.34
7697,-734,2,1.33
7698,-732,2,0.32
7700,-730,3,0.31
7701,-729,-4,0.3
7702,-727,0,0.29
7703,-725,3,-0.68
7705,-723,4,-0.65
7706,-721,3,-0.62
7707,-720,3,-0.59
7708,-718,-4,3.39
7710,-716,30,3.37
7711,-715,22,3.35
7712,-713,22,3.33
7713,-712,13,1.33
7715,-710,3,1.33
7716,-709,-1,1.33
7717,-707,-9,1.32
7718,-706,-35,0.32
7720,-704,-21,0.32
7721,-702,-14,0.32
7722,-700,-10,0.32
7723,-698,7,0.32
7725,-696,11,0.31
7726,-694,17,0.3
7727,-693,14,-2.68
7728,-691,-20,-2.66
7730,-689,-22,-1.65
7731,-688,-17,-1.63
7732,-686,12,-1.61
7733,-684,13,-0.6
7735,-682,14,-0.59
7736,-680,11,-0.58
7737,-678,13,-1.56
7738,-677,7,-1.54
7740,-675,-27,-1.52
7741,-673,-25,-1.5
7742,-671,-24,-1.48
7743,-670,-9,-1.47
7745,-669,21,-1.46
7746,-667,20,-3.43
7747,-666,24,-3.4
7748,-664,0,-3.37
7750,-663,15,-3.34
7751,-661,12,-3.31
7752,-660,4,-2.29
7753,-658,-29,-2.27
7755,-657,-21,-2.25
7756,-656,-18,-2.23
7757,-655,-9,-0.23
7758,-654,-10,-0.23
7760,-653,-2,-0.23
7761,-651,3,-0.23
7762,-650,0,-0.23
7763,-649,-3,-2.21
7765,-648,3,-2.19
7766,-647,3,-2.17
7767,-647,5,-2.15
7768,-646,3,-2.13
7770,-645,-10,-0.13
7771,-644,1,-0.13
7772,-643,6,-0.13
7773,-643,7,-0.13
7775,-642,9,-1.12
7776,-641,4,-1.11
7777,-640,5,-1.09
7778,-639,3,-1.07
7780,-638,1,-1.05
7781,-637,-5,-4
7782,-636,-3,-3.95
7783,-635,5,-3.91
7785,-634,-1,-3.87
7786,-633,-1,-3.83
7787,-633,-8,-1.81
7788,-632,4,-1.78
7790,-631,2,-1.75
7791,-631,2,-1.72
7792,-630,-4,-1.69
7793,-630,3,0.32
7795,-629,2,0.33
7796,-629,2,0.34
7797,-628,0,0.35
7798,-628,4,-2.6
7800,-627,0,-2.55
7801,-627,4,-2.5
7802,-626,0,-2.45
7803,-626,2,-1.43
7805,-626,-2,-1.41
7806,-625,1,-1.39
7807,-625,1,-1.37
7808,-625,-1,-0.37
7810,-624,-1,-0.37
7811,-624,2,-0.37
7812,-624,0,-0.37
7813,-623,2,-0.36
7815,-622,37,-0.35
7816,-622,22,-0.34
7817,-621,16,-0.33
7818,-620,10,-2.28
7820,-620,9,-2.23
7821,-620,7,-2.18
7822,-619,5,-2.13
7823,-619,-35,-2.09
7825,-619,-30,-2.05
7826,-619,-16,-2.01
7827,-618,-14,-1.97
7828,-618,-18,-1.94
7830,-618,-2,-1.91
7831,-618,-4,-1.88
7832,-618,4,-1.85
7833,-618,-1,-0.79
7835,-618,-16,-0.73
7836,-617,5,-0.67
7837,-617,3,-0.61
7838,-616,7,-1.56
7840,-616,5,-1.51
7841,-615,8,-1.46
7842,-614,10,-1.41
7843,-613,27,-3.35
7845,-612,21,-3.29
7846,-611,7,-3.23
7847,-610,2,-0.2
7848,-609,-20,-0.17
7850,-608,-19,-2.12
7851,-607,-24,-2.07
7852,-606,15,-2.05
7853,-605,14,-1.04
7855,-604,14,-1.02
7856,-603,10,-1
7857,-602,12,-1.97
7858,-601,4,-1.93
7860,-600,-25,-1.89
7861,-600,-25,-0.86
7862,-599,-21,-0.84
7863,-599,-9,-0.82
7865,-598,18,-0.8
7866,-598,26,0.21
7867,-598,-11,0.22
7868,-597,24,0.23
7870,-597,19,0.24
7871,-596,9,0.23
7872,-595,7,-0.77
7873,-595,5,-0.77
7875,-594,-1,-0.77
7876,-594,1,-0.77
7877,-594,-33,-0.76
7878,-593,-26,1.23
7880,-593,-14,1.22
7881,-592,-7,1.21
7882,-592,1,1.22
7883,-592,-2,1.23
7885,-592,-2,1.24
7886,-591,5,1.25
7887,-591,1,1.26
7888,-591,-1,1.25
7890,-591,5,1.24
7891,-591,5,1.23
7892,-591,6,1.22
7893,-590,-3,1.21
7895,-590,3,1.22
7896,-590,5,2.22
7897,-590,1,2.22
7898,-590,3,2.22
7900,-590,1,2.21
7901,-590,0,1.21
7902,-590,1,1.21
7903,-590,-1,1.21
7905,-591,0,1.21
7906,-591,0,1.18
7907,-591,2,1.15
7908,-591,3,1.12
7910,-591,-1,1.09
7911,-592,1,1.06
7912,-592,0,1.05
7913,-592,-1,2.03
7915,-592,-1,2.01
7916,-592,4,1.99
7917,-592,-5,1.97
7918,-592,29,1.97
7920,-592,22,1.97
7921,-592,20,1.97
7922,-592,12,1.97
7923,-592,9,1.94
7925,-591,3,1.91
7926,-591,8,1.88
7927,-591,-11,1.85
7928,-591,-30,2.82
7930,-591,-24,2.79
7931,-591,-14,2.76
7932,-591,-14,2.73
7933,-591,-5,0.73
7935,-591,-7,0.73
7936,-592,-1,0.73
7937,-592,1,0.73
7938,-592,1,4.69
7940,-593,2,4.65
7941,-593,3,4.61
7942,-593,2,4.57
7943,-593,0,1.54
7945,-593,-2,1.51
7946,-593,2,1.48
7947,-593,-1,1.45
7948,-593,-1,3.4
7950,-593,-3,3.35
7951,-593,2,3.3
7952,-592,3,3.25
7953,-592,-3,5.18
7955,-592,0,5.11
7956,-592,1,5.04
7957,-591,-2,4.97
7958,-590,-4,4.91
7960,-590,0,4.85
7961,-589,2,4.79
7962,-588,33,4.73
7963,-587,20,4.66
7965,-586,10,4.59
7966,-584,8,4.52
7967,-583,6,3.46
7968,-581,-3,3.38
7970,-579,-33,4.29
7971,-578,-24,4.2
7972,-576,-4,4.14
7973,-575,21,4.08
7975,-573,12,4
7976,-572,13,5.9
7977,-570,13,5.8
7978,-568,4,5.71
7980,-566,-27,5.62
7981,-564,-29,4.54
7982,-562,-20,4.45
7983,-559,-11,4.36
7985,-557,23,4.27
7986,-554,23,6.17
7987,-551,25,6.07
7988,-549,16,5.97
7990,-546,12,5.87
7991,-543,18,5.78
7992,-540,2,6.68
7993,-537,0,6.58
7995,-535,-2,6.48
7996,-532,0,6.38
7997,-530,-36,6.27
7998,-527,-33,7.15
8000,-525,-23,7.03
8001,-523,-12,6.91
8002,-521,-14,6.79
8003,-518,26,7.68
8005,-516,20,7.57
8006,-514,-6,7.46
8007,-512,27,7.35
8008,-510,20,7.24
8010,-509,12,8.12
8011,-507,8,8
8012,-505,-32,7.88
8013,-504,-17,7.76
8015,-503,-15,7.64
8016,-502,-14,8.51
8017,-501,-10,8.38
8018,-500,-1,8.25
8020,-499,4,8.12
8021,-498,2,7.01
8022,-497,0,6.9
8023,-496,-3,6.79
8025,-496,-4,6.68
8026,-495,-13,6.56
8027,-494,-2,7.43
8028,-493,8,7.3
8030,-493,4,7.17
8031,-492,8,7.04
8032,-491,3,6.91
8033,-491,9,6.78
8035,-490,5,6.65
8036,-490,2,6.52
8037,-489,4,6.39
8038,-489,0,6.27
8040,-488,0,6.15
8041,-488,2,6.03
8042,-487,0,5.91
8043,-487,2,6.78
8045,-486,2,6.65
8046,-485,3,6.52
8047,-484,1,6.39
8048,-483,1,7.25
8050,-482,-6,7.11
8051,-482,0,6.97
8052,-481,7,6.83
8053,-480,-5,5.71
8055,-479,-3,5.59
8056,-478,-1,5.47
8057,-477,2,5.35
8058,-477,0,7.19
8060,-476,0,7.03
8061,-475,6,6.87
8062,-475,0,6.71
8063,-475,6,4.61
8065,-475,1,4.51
8066,-474,3,4.41
8067,-474,-9,4.31
8068,-475,0,6.16
8070,-475,4,6.01
8071,-475,2,5.86
8072,-475,0,5.71
8073,-475,3,5.58
8075,-476,1,5.45
8076,-476,3,5.32
8077,-476,1,5.19
8078,-477,3,5.08
8080,-478,-1,4.97
8081,-478,3,4.86
8082,-479,-3,4.75
8083,-479,14,3.65
8085,-480,28,3.55
8086,-481,25,3.45
8087,-481,18,3.35
8088,-482,15,6.22
8090,-483,6,6.09
8091,-483,5,5.96
8092,-484,-17,5.82
8093,-484,-33,6.67
8095,-485,-28,6.53
8096,-485,-13,6.39
8097,-485,9,6.25
8098,-486,22,5.12
8100,-486,11,4.99
8101,-487,9,4.88
8102,-487,7,3.78
8103,-487,-2,3.68
8105,-487,-26,4.57
8106,-487,-36,4.45
8107,-488,-10,4.33
8108,-488,24,5.2
8110,-488,15,5.07
8111,-488,10,5.95
8112,-488,16,5.83
8113,-488,9,5.71
8115,-488,-26,2.62
8116,-488,-23,2.53
8117,-488,-16,2.45
8118,-488,-17,2.37
8120,-487,21,2.29
8121,-487,22,3.2
8122,-486,-6,3.11
8123,-486,10,3.03
8125,-485,19,2.95
8126,-485,10,2.87
8127,-484,8,5.76
8128,-484,-27,5.66
8130,-484,-24,5.56
8131,-484,-13,5.46
8132,-485,-15,4.37
8133,-486,-8,4.28
8135,-487,-7,4.2
8136,-488,4,4.12
8137,-489,12,4.04
8138,-491,1,1.98
8140,-492,2,1.92
8141,-493,6,1.87
8142,-494,-2,1.82
8143,-495,-1,2.76
8145,-496,2,2.7
8146,-497,2,2.63
8147,-498,4,2.56
8148,-498,-2,2.49
8150,-499,1,2.42
8151,-500,-1,2.35
8152,-500,-4,2.29
8153,-501,2,2.23
8155,-501,-1,4.15
8156,-501,3,4.07
8157,-501,-1,3.99
8158,-501,4,3.91
8160,-501,-4,3.83
8161,-501,0,2.76
8162,-501,-4,2.69
8163,-501,3,2.62
8165,-501,2,2.55
8166,-502,1,2.48
8167,-502,4,0.43
8168,-502,3,0.39
8170,-502,4,0.35
8171,-502,1,0.31
8172,-502,3,0.27
8173,-502,-3,2.22
8175,-502,-6,2.17
8176,-502,4,2.12
8177,-502,-1,2.07
8178,-502,-1,1.02
8180,-501,3,0.97
8181,-500,0,0.92
8182,-500,3,0.87
8183,-499,3,1.83
8185,-499,2,1.79
8186,-498,4,1.75
8187,-498,2,1.71
8188,-498,0,-0.33
8190,-498,1,-0.37
8191,-498,2,-0.41
8192,-498,-4,-0.45
8193,-498,-2,2.5
8195,-498,1,2.45
8196,-498,-1,2.4
8197,-498,-3,2.35
8198,-498,-1,0.32
8200,-498,1,0.29
8201,-499,3,0.26
8202,-499,2,0.23
8203,-499,-1,1.19
8205,-499,36,1.15
8206,-498,31,1.11
8207,-498,19,1.07
8208,-498,11,0.03
8210,-497,6,-0.01
8211,-497,3,-0.05
8212,-497,-20,-0.09
8213,-496,-31,-0.1
8215,-496,-26,-0.11
8216,-495,-14,-0.12
8217,-495,5,-0.13
8218,-494,22,0.86
8220,-494,12,0.85
8221,-493,15,0.84
8222,-493,9,2.81
8223,-493,9,2.77
8225,-493,-29,0.75
8226,-493,-31,0.73
8227,-493,-16,0.7
8228,-493,17,0.67
8230,-493,13,0.65
8231,-493,12,0.63
8232,-493,7,1.6
8233,-493,5,1.58
8235,-494,-22,0.57
8236,-494,-22,0.57
8237,-494,-21,0.57
8238,-494,-11,0.57
8240,-495,2,0.54
8241,-495,33,3.48
8242,-495,25,3.42
8243,-496,23,3.36
8245,-496,19,3.3
8246,-496,11,3.25
8247,-497,6,0.23
8248,-497,0,0.21
8250,-497,1,0.19
8251,-497,2,0.17
8252,-498,-25,0.18
8253,-498,-28,0.19
8255,-498,-23,0.2
8256,-498,-14,0.21
8257,-498,-15,0.21
8258,-498,-3,1.2
8260,-498,-6,1.19
8261,-498,6,1.18
8262,-498,3,1.17
8263,-498,3,1.14
8265,-498,4,0.12
8266,-498,3,0.1
8267,-498,2,0.08
8268,-498,5,0.07
8270,-497,-1,3.03
8271,-497,-2,2.99
8272,-497,-2,2.95
8273,-497,2,2.91
8275,-496,-5,2.87
8276,-496,4,1.84
8277,-495,2,1.81
8278,-494,7,1.78
8280,-493,-1,1.77
8281,-492,-1,1.76
8282,-491,3,3.73
8283,-490,0,3.7
8285,-489,-2,3.67
8286,-489,1,3.63
8287,-488,2,3.59
8288,-488,2,3.55
8290,-488,1,3.51
8291,-488,3,3.47
8292,-488,0,3.41
8293,-488,1,2.36
8295,-488,-1,2.31
8296,-488,2,2.26
8297,-489,0,2.21
8298,-489,-1,4.16
8300,-489,-1,4.11
8301,-489,2,4.06
8302,-489,1,4.01
8303,-490,0,2.96
8305,-490,1,2.91
8306,-490,3,2.86
8307,-491,1,2.81
8308,-491,-2,3.76
8310,-491,2,3.71
8311,-491,1,3.66
8312,-491,1,3.61
8313,-491,2,3.54
8315,-491,0,3.47
8316,-491,4,3.4
8317,-491,1,3.33
8318,-491,0,4.28
8320,-491,-3,4.23
8321,-491,2,4.18
8322,-491,1,4.13
8323,-492,0,4.06
8325,-492,34,3.99
8326,-492,29,3.92
8327,-492,20,3.85
8328,-492,14,3.79
8330,-492,9,3.73
8331,-492,4,3.67
8332,-492,-16,3.61
8333,-492,-38,3.54
8335,-492,-24,3.47
8336,-492,-19,3.4
8337,-492,9,3.33
8338,-492,23,3.26
8340,-492,19,3.19
8341,-493,14,3.12
8342,-493,11,3.05
8343,-493,-7,2.99
8345,-493,-25,2.93
8346,-494,-24,2.87
8347,-494,22,2.83
8348,-495,11,3.78
8350,-495,9,3.71
8351,-496,0,4.63
8352,-497,-1,4.55
8353,-499,2,4.47
8355,-500,-36,1.42
8356,-501,-34,1.37
8357,-502,-18,1.33
8358,-503,-17,1.29
8360,-504,3,1.24
8361,-505,35,2.18
8362,-507,28,2.12
8363,-507,1,2.06
8365,-508,-10,2
8366,-509,21,1.97
8367,-510,-27,3.92
8368,-511,-15,3.87
8370,-512,-11,3.82
8371,-513,-3,3.77
8372,-514,-2,3.69
8373,-516,-2,0.64
8375,-517,-5,0.59
8376,-518,4,0.54
8377,-519,4,0.49
