0,898,-11,-10.7
1,832,11,-10.48
2,769,39,-10.26
3,710,46,-10.04
5,653,66,-8.79
6,600,63,-8.54
7,550,56,-8.29
8,503,0,-8.04
10,459,-13,-4.81
11,418,-19,-4.58
12,381,-18,-4.35
13,346,3,-4.12
15,314,-9,0.11
16,284,-15,0.34
17,258,-10,0.57
18,233,-11,0.8
20,212,4,-1
21,193,4,-0.8
22,176,14,-0.6
23,161,-18,-0.4
25,148,0,1.78
26,137,10,1.96
27,128,52,2.14
28,120,98,2.32
30,114,132,-0.51
31,109,134,-0.34
32,105,136,-0.17
33,102,115,-0
35,100,106,-4.77
36,99,75,-4.54
37,99,64,-4.31
38,99,6,-4.08
40,100,-7,-2.88
41,101,-9,-2.68
42,102,0,-2.48
43,104,36,-2.28
45,105,17,-4.11
46,107,7,-3.94
47,109,-7,-3.77
48,111,-8,-3.6
50,113,-18,-5.41
51,115,-22,-5.22
52,117,-20,-5.03
53,119,-54,-4.84
55,121,-51,-4.69
56,123,-57,-4.54
57,125,-41,-4.39
58,127,17,-4.24
60,129,15,-7.09
61,131,9,-6.94
62,132,-12,-6.79
63,134,-12,-6.64
65,136,-38,-2.53
66,138,-45,-2.42
67,140,-58,-2.31
68,142,-82,-2.2
70,144,-96,0.87
71,146,-74,0.94
72,147,-62,1.01
73,149,5,1.08
75,150,8,1.07
76,152,18,1.06
77,153,30,1.05
78,155,32,1.04
80,156,25,2.05
81,158,16,2.06
82,160,7,2.07
83,161,-12,2.08
85,163,-9,8.02
86,164,-11,7.96
87,165,-10,7.9
88,166,13,7.84
90,167,9,11.71
91,168,3,11.58
92,168,-6,11.45
93,169,-5,11.32
95,169,-1,12.15
96,170,-2,11.98
97,170,0,11.81
98,171,-43,11.64
100,171,-25,12.44
101,172,-21,12.24
102,173,4,12.04
103,174,30,11.84
105,175,26,11.63
106,176,25,11.42
107,177,24,11.21
108,178,19,11
110,179,24,15.78
111,180,23,15.56
112,181,50,15.34
113,181,5,15.12
115,182,25,11.94
116,183,23,11.76
117,184,49,11.58
118,184,90,11.4
120,185,76,15.17
121,185,57,14.94
122,186,39,14.71
123,186,18,14.48
125,187,-1,15.27
126,187,-13,15.06
127,188,-83,14.85
128,189,-78,15.63
130,190,-61,15.42
131,191,-49,15.21
132,192,-38,15
133,192,-33,17.76
135,193,-41,17.55
136,194,4,17.34
137,194,33,17.13
138,195,1,16.92
140,195,-22,17.74
141,196,-19,17.56
142,197,-25,17.38
143,197,-18,17.2
145,198,-20,19.97
146,199,-18,19.74
147,199,-13,19.51
148,200,-6,19.28
150,201,8,20.06
151,201,41,19.84
152,201,70,19.62
153,201,63,19.4
155,202,64,18.16
156,202,52,17.92
157,202,28,17.68
158,202,-21,17.44
160,203,-59,21.11
161,203,-56,20.78
162,203,-49,20.45
163,203,-42,20.12
165,202,-31,22.77
166,202,-21,22.42
167,202,-8,22.07
168,202,-2,21.72
170,201,-6,21.35
171,200,-4,20.98
172,200,-11,20.61
173,199,-15,20.24
175,198,-44,19.85
176,197,-57,19.46
177,196,-63,19.07
178,195,-57,18.68
180,194,-9,21.26
181,193,-8,20.84
182,193,-32,20.42
183,192,-29,20
185,191,-30,16.58
186,191,-24,16.16
187,190,-26,15.74
188,189,-49,15.32
190,188,-39,16.92
191,187,-17,16.52
192,186,11,16.12
193,184,50,15.72
195,183,86,13.37
196,182,85,13.02
197,180,86,12.67
198,179,69,12.32
200,177,59,13.95
201,176,39,13.58
202,174,7,13.21
203,172,-39,12.84
205,171,-3,13.47
206,169,-4,13.1
207,167,13,12.73
208,165,35,12.36
210,164,39,10.07
211,162,30,9.78
212,160,12,9.49
213,158,0,8.21
215,156,-6,7.97
216,155,-60,7.73
217,153,-68,7.49
218,152,-39,7.25
220,150,-23,7.02
221,149,-3,6.79
222,148,45,9.53
223,147,52,9.27
225,147,58,9.02
226,146,47,8.77
227,146,37,8.52
228,145,29,6.29
230,145,17,6.06
231,145,18,5.83
232,145,2,5.6
233,145,-21,5.37
235,145,-31,5.19
236,145,-27,5.01
237,146,-30,4.83
238,147,5,4.65
240,148,-3,1.47
241,149,-3,1.29
242,150,-1,1.11
243,152,-4,0.93
245,154,-16,-2.18
246,156,-18,-2.29
247,159,-27,-2.4
248,161,-78,-2.51
250,164,-83,-2.61
251,168,-76,-2.71
252,171,-68,-2.81
253,175,-58,-2.9
255,179,6,-2
256,183,8,-2.1
257,187,6,-2.2
258,192,-35,-5.24
260,198,-50,-5.28
261,204,-40,-5.32
262,210,-55,-5.36
263,216,-67,-1.44
265,223,-60,-1.51
266,230,-46,-1.58
267,236,-36,-1.65
268,243,-23,-1.72
270,249,-13,0.22
271,256,-4,0.16
272,263,35,0.1
273,269,65,0.04
275,275,79,1.97
276,282,87,1.9
277,288,113,1.83
278,294,118,1.76
280,301,108,4.65
281,308,86,4.54
282,315,63,4.43
283,321,38,4.32
285,329,7,8.21
286,336,-23,8.1
287,343,-44,7.99
288,349,-49,7.88
290,356,-47,10.77
291,363,-39,10.66
292,370,-26,10.55
293,376,-15,10.44
295,382,7,12.31
296,389,13,12.18
297,395,24,12.05
298,401,50,11.92
300,407,79,12.78
301,413,71,12.64
302,419,73,12.5
303,425,52,12.36
305,431,19,15.22
306,436,-4,15.08
307,442,-28,14.94
308,447,-36,14.8
310,453,-32,17.6
311,457,-11,17.4
312,462,83,17.2
313,466,175,17
315,470,179,14.84
316,474,65,14.68
317,477,-38,14.52
318,480,-57,13.37
320,483,-35,13.2
321,486,-76,13.03
322,489,-51,16.82
323,491,-11,16.61
325,494,31,16.42
326,495,47,16.23
327,497,85,16.04
328,499,53,12.88
330,500,25,12.73
331,502,3,12.58
332,503,-18,12.43
333,504,-25,12.28
335,505,-53,11.12
336,506,-51,10.96
337,506,-101,10.8
338,507,-91,10.63
340,507,-98,10.46
341,508,-90,10.29
342,508,-91,10.12
343,509,-27,9.95
345,509,-22,9.78
346,510,-17,9.61
347,511,-39,9.47
348,511,-32,9.33
350,511,-43,12.16
351,512,-40,11.99
352,512,-43,11.82
353,512,-68,11.63
355,512,-78,9.46
356,512,-60,9.29
357,512,-12,9.12
358,511,24,8.95
360,511,37,7.79
361,511,38,7.63
362,510,41,7.47
363,510,38,7.31
365,510,40,3.16
366,509,31,3.01
367,509,32,2.86
368,509,-9,2.71
370,508,-14,-0.44
371,508,-13,-0.59
372,507,16,-0.74
373,506,66,-0.89
375,506,64,2.92
376,505,3,2.73
377,504,76,2.54
378,503,13,-0.62
380,502,20,-0.77
381,501,17,-0.92
382,501,26,-1.07
383,500,28,1.72
385,499,29,1.51
386,499,20,1.3
387,498,19,1.09
388,497,15,5.87
390,497,13,5.65
391,496,22,5.43
392,495,29,5.21
393,495,25,4.99
395,494,31,-1.15
396,494,27,-1.29
397,493,27,-1.43
398,493,14,-1.57
400,492,38,-0.7
401,492,29,-0.83
402,492,32,-0.96
403,492,23,-1.09
405,492,19,2.77
406,492,12,2.63
407,492,3,2.49
408,492,-2,2.35
410,492,-28,3.24
411,492,-25,3.13
412,493,-35,3.02
413,493,-46,2.91
415,493,-47,3.82
416,494,-39,3.73
417,494,-31,3.64
418,494,19,3.55
420,495,47,-4.44
421,495,39,-4.43
422,496,28,-4.42
423,496,13,-4.41
425,497,-4,-0.43
426,498,-19,-0.45
427,498,-53,-0.47
428,499,-72,-0.49
430,500,-128,2.49
431,500,-114,2.47
432,500,-124,2.45
433,501,-77,2.43
435,501,-52,2.44
436,501,-35,2.45
437,501,-28,2.46
438,500,-16,2.47
440,500,-9,0.48
441,500,-4,0.49
442,500,2,0.5
443,500,-27,0.5
445,500,-14,1.49
446,501,-3,1.48
447,501,34,1.51
448,501,89,1.54
450,501,134,2.56
451,501,179,2.58
452,502,212,2.6
453,502,247,3.58
455,503,232,3.56
456,503,164,3.54
457,504,114,8.47
458,505,77,8.4
460,505,48,8.32
461,506,17,8.24
462,507,60,8.16
463,508,34,5.11
465,509,23,5.06
466,510,-3,5.01
467,511,-6,4.96
468,512,-44,4.91
470,513,-73,1.89
471,513,-71,1.87
472,514,-78,1.85
473,514,-81,1.83
475,514,-82,-1.13
476,515,-73,-1.09
477,515,-97,-1.05
478,515,-50,-1.01
480,515,-59,-0
481,515,-61,0.01
482,514,-80,0.02
483,514,-69,0.03
485,514,-58,-2.94
486,514,-49,-2.91
487,514,-56,-2.88
488,513,-85,-2.85
490,513,-92,-3.85
491,512,-84,-3.85
492,512,-68,-3.85
493,511,4,-3.85
495,511,3,-5.86
496,510,7,-5.87
497,510,8,-5.88
498,509,-3,-5.89
500,509,0,-7.84
501,508,-40,-7.79
502,508,-37,-7.74
503,508,-22,-9.7
505,508,0,-9.66
506,508,9,-9.62
507,508,25,-9.58
508,508,30,-9.51
510,508,26,-11.42
511,508,30,-11.33
512,507,12,-11.24
513,507,0,-11.1
515,507,-7,-8.98
516,507,-15,-8.86
517,507,-17,-8.74
518,507,-8,-8.62
520,507,-22,-9.55
521,507,-18,-9.48
522,507,-9,-9.41
523,507,-3,-9.34
525,507,17,-2.33
526,507,25,-2.32
527,508,66,-2.31
528,508,72,-2.3
530,508,73,-4.23
531,508,84,-4.16
532,507,98,-4.09
533,507,87,-4.02
535,507,95,0.02
536,507,71,0.06
537,506,66,0.1
538,506,102,0.14
540,506,121,8.11
541,505,97,8.08
542,505,78,8.05
543,504,51,8.02
545,503,24,14.84
546,502,6,14.66
547,501,-23,14.48
548,500,-69,14.3
550,498,-86,23.07
551,496,-75,22.84
552,494,-56,22.61
553,492,10,22.38
555,489,29,31.09
556,487,31,30.8
557,485,16,30.51
558,483,6,30.22
560,481,-14,37.85
561,479,-31,37.48
562,477,-40,37.11
563,476,-76,36.74
565,475,-94,47.24
566,473,-78,46.74
567,472,-35,46.24
568,471,33,45.74
570,469,59,50.2
571,468,54,49.66
572,467,47,49.12
573,466,24,56.5
575,465,1,55.89
576,464,-62,55.28
577,464,-85,59.62
578,464,-77,58.97
580,464,-69,58.32
581,464,-59,57.67
582,465,-3,57.07
583,465,-19,58.45
585,466,-14,57.83
586,468,-18,57.21
587,469,-54,56.59
588,471,-82,55.94
590,472,-85,56.28
591,473,-84,55.62
592,475,-84,54.96
593,476,-66,54.3
595,478,-69,56.58
596,479,-60,55.86
597,480,-66,55.14
598,482,-7,54.42
600,483,-6,55.65
601,484,-14,54.88
602,484,-26,54.11
603,485,-13,53.34
605,486,-21,52.58
606,486,-19,51.82
607,486,-28,51.06
608,487,-39,50.3
610,487,-31,54.46
611,487,-17,53.62
612,487,25,52.78
613,487,77,51.94
615,487,81,51.09
616,487,77,50.24
617,487,79,49.39
618,488,72,48.54
620,488,90,53.61
621,489,75,52.68
622,491,79,51.75
623,492,30,50.82
625,493,21,45.91
626,495,22,45
627,497,31,44.09
628,498,22,46.13
630,499,21,45.17
631,501,33,44.21
632,502,97,43.25
633,503,15,47.24
635,504,5,46.21
636,504,0,45.18
637,505,-18,44.15
638,505,-18,43.12
640,506,-28,46.07
641,506,-35,45.02
642,506,-25,43.97
643,507,-32,42.92
645,507,-44,40.87
646,507,-35,39.82
647,507,-26,38.77
648,508,-5,37.72
650,508,-17,40.7
651,508,-10,39.68
652,508,-24,38.66
653,509,-5,37.64
655,509,-8,41.55
656,509,-11,40.46
657,510,-8,39.37
658,510,-9,38.28
660,511,1,42.18
661,511,-3,41.08
662,512,0,39.98
663,512,-1,38.88
665,513,28,42.81
666,513,36,41.74
667,514,52,40.67
668,514,50,39.6
670,515,74,39.59
671,515,71,38.58
672,515,76,37.57
673,516,93,36.56
675,516,106,37.62
676,516,92,36.68
677,516,77,35.74
678,517,67,34.8
680,517,76,32.96
681,518,65,32.12
682,519,66,31.28
683,519,20,30.44
685,520,7,29.68
686,520,7,28.92
687,521,17,28.16
688,521,37,27.4
690,521,8,26.75
691,521,-37,26.1
692,521,-79,25.45
693,521,-123,20.84
695,520,-152,20.28
696,520,-177,19.72
697,519,-154,19.16
698,519,-141,18.68
700,518,-76,18.2
701,517,-41,17.72
702,517,29,17.29
703,516,26,18.84
705,515,28,18.39
706,514,25,17.94
707,513,-23,17.49
708,512,-50,17.06
710,510,-51,11.68
711,509,-58,11.3
712,507,-53,10.92
713,506,-39,10.54
715,504,-18,4.23
716,503,5,3.92
717,501,-16,3.61
718,500,20,3.3
720,498,1,-0.94
721,497,-8,-1.18
722,496,-33,-1.42
723,495,-35,-1.66
725,494,-45,-3.86
726,493,-52,-4.06
727,492,-43,-4.26
728,491,-61,-4.46
730,490,-84,-7.63
731,490,-74,-7.8
732,489,-70,-7.97
733,488,-29,-8.14
735,488,-31,-13.21
736,488,-23,-13.28
737,487,-28,-13.35
738,487,-20,-13.42
740,487,-21,-17.45
741,487,-7,-17.48
742,487,1,-17.51
743,487,-8,-17.54
745,487,15,-20.48
746,487,20,-20.42
747,487,33,-20.36
748,487,77,-20.3
750,487,67,-23.25
751,487,39,-23.2
752,487,105,-23.15
753,487,51,-23.07
755,487,56,-28.93
756,487,49,-28.79
757,487,60,-28.65
758,487,59,-28.46
760,487,82,-29.26
761,487,69,-29.06
762,487,76,-28.86
763,487,65,-26.68
765,487,73,-26.46
766,487,63,-26.24
767,487,71,-26.02
768,487,69,-25.8
770,487,71,-23.61
771,487,60,-23.42
772,487,52,-23.23
773,487,45,-23.04
775,486,54,-25.78
776,486,38,-25.52
777,486,35,-25.26
778,485,23,-25
780,485,25,-20.73
781,484,8,-20.46
782,484,10,-20.19
783,483,-3,-19.92
785,483,-13,-21.58
786,482,-13,-21.24
787,482,-10,-20.9
788,481,-14,-20.56
790,481,-12,-17.2
791,482,-3,-16.84
792,482,5,-16.48
793,483,56,-16.12
795,485,77,-11.79
796,488,61,-11.46
797,491,46,-11.13
798,495,30,-10.8
800,497,9,-13.42
801,499,-12,-13.04
802,499,-30,-12.66
803,498,-67,-12.28
805,496,-83,-7.95
806,492,-72,-7.62
807,486,-62,-7.29
808,480,-10,-6.96
810,478,-9,-8.61
811,479,5,-8.26
812,484,-5,-7.91
813,491,-6,-7.56
815,508,12,-6.22
816,533,11,-5.88
817,563,7,-5.54
818,599,-21,-5.24
820,645,-50,-4.94
821,700,-51,-4.64
822,761,-45,-4.34
823,826,7,-4.04
825,902,-16,-4.73
826,986,-37,-4.42
827,1075,-44,-4.11
828,1171,-61,-6.75
830,1273,-56,-6.39
831,1377,-104,-6.03
832,1478,-125,-5.67
833,1577,-108,-5.31
835,1672,-86,-5
836,1762,-75,-4.69
837,1838,-11,-5.37
838,1901,-15,-5.05
840,1953,11,-4.79
841,1994,11,-4.53
842,2025,7,-4.27
843,2041,8,-5.99
845,2045,4,-5.75
846,2037,0,-5.51
847,2019,9,-5.27
848,1995,-30,-5.03
850,1959,-31,-7.78
851,1916,-24,-7.53
852,1867,-11,-7.28
853,1812,47,-7.03
855,1752,74,-5.82
856,1688,70,-5.61
857,1621,69,-5.4
858,1553,50,-5.19
860,1482,9,-6.02
861,1410,-45,-5.85
862,1337,-53,-5.68
863,1266,-52,-5.51
865,1194,-58,-6.37
866,1122,-50,-6.23
867,1053,-26,-6.09
868,986,24,-5.95
870,920,40,-10.79
871,857,41,-10.63
872,796,67,-10.47
873,738,72,-10.31
875,683,83,-5.23
876,631,26,-5.15
877,581,55,-5.07
878,534,54,-4.99
880,490,43,-4.97
881,449,30,-4.95
882,411,9,-4.93
883,376,-9,-4.91
885,344,-32,-5.89
886,314,-30,-5.87
887,287,-46,-5.85
888,263,-40,-5.81
890,241,-54,-8.74
891,221,-57,-8.67
892,204,-63,-8.6
893,189,-57,-8.53
895,176,-45,-11.41
896,164,-32,-11.29
897,155,-14,-11.17
898,147,-11,-11.05
900,140,21,-14.92
901,135,41,-14.79
902,131,70,-14.66
903,128,73,-14.53
905,125,70,-16.34
906,124,65,-16.15
907,123,91,-15.96
908,123,86,-15.77
910,123,99,-22.53
911,123,95,-22.29
912,124,104,-22.05
913,125,122,-21.81
915,127,120,-21.54
916,128,91,-21.27
917,130,68,-21
918,132,45,-20.73
920,134,26,-23.39
921,136,12,-23.05
922,137,-1,-22.71
923,138,-33,-22.37
925,139,-62,-27.01
926,139,-53,-26.65
927,140,-59,-26.29
928,140,-1,-25.93
930,139,-5,-26.52
931,139,-9,-26.11
932,137,-33,-25.7
933,136,-31,-25.29
935,135,-44,-26.88
936,133,-46,-26.47
937,132,-45,-26.06
938,130,-71,-25.65
940,129,-85,-25.23
941,128,-73,-24.81
942,127,-62,-24.39
943,126,-16,-23.97
945,125,-35,-18.6
946,124,-42,-18.23
947,124,-38,-17.86
948,123,-52,-19.47
950,123,-68,-19.09
951,122,-104,-18.71
952,122,-102,-15.36
953,123,-79,-15.04
955,123,-61,-14.72
956,124,-8,-14.4
957,124,10,-15.07
958,126,8,-14.74
960,127,13,-14.41
961,129,-6,-14.08
962,130,-45,-13.76
963,132,-41,-10.47
965,135,-33,-10.18
966,138,-30,-9.89
967,142,-20,-9.6
968,145,-12,-9.33
970,149,-12,-9.06
971,152,-11,-8.79
972,156,-8,-8.52
973,159,26,-8.25
975,162,39,-10.98
976,165,44,-10.71
977,168,58,-10.44
978,171,56,-10.17
980,174,68,-12.86
981,176,62,-12.55
982,179,63,-12.24
983,181,29,-11.93
985,183,29,-15.59
986,185,28,-15.25
987,188,27,-14.91
988,190,62,-14.57
990,192,69,-15.23
991,193,62,-14.89
992,195,49,-14.55
993,197,31,-14.21
995,198,-10,-17.88
996,199,-16,-17.55
997,201,-23,-17.22
998,201,-42,-16.89
1000,202,-42,-23.44
1001,203,-26,-22.99
1002,204,-10,-22.54
1003,204,9,-22.09
1005,204,90,-22.63
1006,205,104,-22.17
1007,205,111,-21.71
1008,205,35,-21.25
1010,205,32,-24.76
1011,205,8,-24.27
1012,204,-14,-23.78
1013,204,-36,-23.29
1015,204,-50,-27.78
1016,204,-51,-27.27
1017,204,-59,-26.76
1018,204,-54,-26.25
1020,204,-53,-23.79
1021,204,-45,-23.33
1022,203,-52,-22.87
1023,203,-32,-22.41
1025,203,-42,-24.96
1026,203,-21,-24.51
1027,202,-19,-24.06
1028,202,-17,-23.61
1030,202,-24,-19.22
1031,201,-26,-18.83
1032,200,-34,-18.44
1033,200,-34,-18.05
1035,199,-39,-16.74
1036,198,-36,-16.43
1037,198,-32,-16.12
1038,197,-20,-15.81
1040,197,-16,-8.57
1041,196,-16,-8.33
1042,196,-4,-8.09
1043,195,5,-7.85
1045,195,22,-3.68
1046,194,36,-3.51
1047,193,52,-3.34
1048,193,66,-3.17
1050,192,81,-6.02
1051,191,64,-5.87
1052,190,57,-5.72
1053,188,43,-5.57
1055,187,43,1.5
1056,186,27,1.57
1057,184,14,1.64
1058,182,-12,1.71
1060,181,-39,2.75
1061,179,-43,2.79
1062,177,-49,2.83
1063,176,-11,2.87
1065,174,-1,4.89
1066,172,-9,4.91
1067,171,-13,4.93
1068,170,-9,4.95
1070,168,-18,3.04
1071,167,-18,3.13
1072,166,-31,3.22
1073,164,-37,3.29
1075,163,-68,-0.6
1076,161,-62,-0.49
1077,160,-52,-0.35
1078,158,-22,-0.21
1080,157,-9,0.92
1081,156,4,1.05
1082,155,16,1.17
1083,154,29,-1.68
1085,153,40,-1.53
1086,152,-12,-1.38
1087,152,-9,-3.21
1088,151,-8,-3.01
1090,151,-1,-2.81
1091,150,1,-2.61
1092,150,53,-2.41
1093,150,51,-4.19
1095,150,45,-3.97
1096,150,37,-3.75
1097,150,23,-3.53
1098,150,17,-3.31
1100,150,7,-8.07
1101,151,-15,-7.83
1102,152,-8,-7.59
1103,153,-38,-7.35
1105,154,-63,-11.1
1106,156,-52,-10.85
1107,158,-36,-10.6
1108,160,21,-10.35
1110,163,22,-11.13
1111,166,26,-10.91
1112,169,36,-10.69
1113,172,45,-10.47
1115,175,39,-13.23
1116,179,35,-12.99
1117,183,34,-12.75
1118,187,-6,-12.51
1120,191,-18,-14.29
1121,196,-3,-14.07
1122,200,20,-13.85
1123,205,48,-13.63
1125,211,52,-13.48
1126,216,14,-13.33
1127,223,73,-13.18
1128,229,11,-13.03
1130,236,24,-14.87
1131,243,33,-14.71
1132,250,55,-14.55
1133,257,62,-14.39
1135,265,61,-17.24
1136,273,48,-17.09
1137,281,40,-16.94
1138,289,19,-16.79
1140,297,5,-13.72
1141,305,-21,-13.65
1142,313,-34,-13.58
1143,321,-49,-13.51
1145,330,-71,-18.37
1146,338,-64,-18.23
1147,346,-72,-18.09
1148,354,-64,-17.95
1150,362,-53,-14.87
1151,370,-49,-14.79
1152,378,-11,-14.71
1153,386,4,-14.63
1155,394,30,-13.52
1156,402,22,-13.41
1157,409,36,-13.3
1158,417,32,-13.19
1160,424,12,-12.08
1161,432,-2,-11.97
1162,439,-16,-11.86
1163,446,-27,-11.75
1165,453,-59,-13.55
1166,460,-58,-13.35
1167,467,-91,-13.15
1168,474,-52,-12.95
1170,480,-62,-15.68
1171,486,-62,-15.41
1172,492,-75,-15.14
1173,497,-68,-14.87
1175,503,-45,-10.67
1176,508,-30,-10.47
1177,513,-33,-10.27
1178,518,-59,-10.07
1180,523,-118,-13.76
1181,527,-119,-13.45
1182,532,-66,-13.14
1183,536,-6,-12.83
1185,540,12,-11.52
1186,544,32,-11.21
1187,548,89,-10.9
1188,551,93,-10.59
1190,555,76,-8.28
1191,558,46,-7.97
1192,561,-7,-7.66
1193,563,-47,-7.35
1195,566,-73,-7.06
1196,568,-71,-6.77
1197,570,-60,-6.48
1198,572,0,-6.19
1200,573,59,-10.89
1201,575,103,-10.59
1202,576,119,-10.29
1203,577,115,-9.99
1205,578,110,-9.68
1206,579,46,-9.37
1207,580,35,-6.09
1208,581,41,-5.84
1210,582,47,-5.59
1211,582,79,-5.34
1212,583,77,-5.11
1213,583,67,-6.86
1215,584,50,-6.61
1216,584,25,-6.36
1217,584,-29,-6.11
1218,584,-49,-5.88
1220,584,-57,-7.63
1221,583,-47,-7.38
1222,583,-38,-7.13
1223,582,-25,-6.88
1225,582,-17,-8.66
1226,581,-11,-8.44
1227,581,18,-8.22
1228,580,57,-8
1230,580,65,-6.83
1231,579,58,-6.66
1232,578,65,-6.49
1233,577,60,-6.32
1235,576,68,-8.14
1236,576,56,-7.96
1237,575,64,-7.78
1238,574,14,-7.6
1240,573,21,-6.46
1241,573,22,-6.32
1242,572,43,-6.18
1243,572,101,-6.04
1245,571,109,-7.9
1246,571,93,-7.76
1247,571,86,-7.62
1248,571,64,-7.48
1250,570,48,-9.32
1251,570,5,-9.16
1252,570,0,-9
1253,569,2,-8.84
1255,569,-4,-10.68
1256,568,-3,-10.52
1257,568,1,-10.36
1258,567,-3,-10.2
1260,567,-19,-6.11
1261,566,-10,-6.02
1262,565,-24,-5.93
1263,565,-18,-5.84
1265,564,-28,-11.66
1266,563,-28,-11.48
1267,563,-59,-11.3
1268,562,-44,-11.12
1270,562,-75,-7.03
1271,561,-87,-6.94
1272,561,-109,-6.85
1273,561,-103,-6.76
1275,560,-103,-9.61
1276,560,-85,-9.46
1277,560,-82,-9.31
1278,560,-64,-9.16
1280,560,-64,-9.99
1281,560,-58,-9.82
1282,560,-48,-9.65
1283,561,-37,-9.48
1285,561,-30,-10.29
1286,562,-26,-10.1
1287,563,-24,-9.91
1288,565,14,-9.72
1290,566,22,-8.56
1291,568,5,-8.4
1292,570,-9,-8.24
1293,572,-18,-8.08
1295,574,-19,-4.98
1296,576,-21,-4.88
1297,577,-18,-4.78
1298,579,-41,-4.68
1300,581,-51,-3.55
1301,583,-35,-3.42
1302,584,-23,-3.29
1303,585,35,-3.16
1305,586,51,-2.08
1306,588,51,-2
1307,589,55,-1.92
1308,590,58,-1.84
1310,590,50,-0.76
1311,591,50,-0.68
1312,592,31,-0.6
1313,593,12,-0.52
1315,593,0,-2.4
1316,594,-2,-2.28
1317,594,16,-2.16
1318,595,49,-2.04
1320,595,68,4.02
1321,595,77,4.08
1322,596,90,4.14
1323,596,95,2.22
1325,597,79,2.25
1326,597,10,2.28
1327,598,-3,7.26
1328,598,3,7.24
1330,598,13,7.22
1331,599,15,7.2
1332,599,74,7.21
1333,599,58,3.26
1335,599,63,3.31
1336,599,65,3.36
1337,599,54,3.41
1338,600,-23,3.44
1340,600,-12,1.49
1341,600,-12,1.54
1342,601,4,1.59
1343,601,9,1.64
1345,602,18,3.65
1346,603,19,3.66
1347,604,23,3.67
1348,604,39,3.68
1350,605,51,3.67
1351,605,25,3.66
1352,606,6,3.65
1353,606,-11,3.64
1355,606,-44,1.66
1356,607,-44,1.68
1357,607,-64,1.7
1358,607,-87,1.72
1360,607,-108,0.73
1361,608,-87,0.74
1362,608,-79,0.75
1363,608,-34,0.76
1365,609,-30,-2.19
1366,609,-23,-2.14
1367,610,-42,-2.09
1368,610,-34,-2.04
1370,611,-36,-1.02
1371,612,-38,-1
1372,612,-45,-0.98
1373,612,-66,-0.96
1375,613,-98,-1.95
1376,613,-80,-1.94
1377,613,-76,-1.93
1378,614,-56,-1.92
1380,614,12,-3.91
1381,614,23,-3.9
1382,614,34,-3.89
1383,614,-10,-3.88
1385,614,-7,-6.8
1386,613,6,-6.72
1387,613,14,-6.64
1388,612,14,-6.56
1390,612,14,-5.55
1391,611,20,-5.54
1392,611,17,-5.53
1393,610,17,-5.52
1395,609,9,-3.49
1396,608,5,-3.46
1397,607,4,-3.43
1398,606,-4,-3.4
1400,604,7,-4.39
1401,603,12,-4.38
1402,601,24,-4.37
1403,599,42,-4.36
1405,598,47,-4.36
1406,596,38,-4.36
1407,594,34,-4.36
1408,592,31,-4.36
1410,590,33,-8.33
1411,587,22,-8.3
1412,585,33,-8.27
1413,582,32,-8.24
1415,579,39,-12.16
1416,577,32,-12.08
1417,575,39,-12
1418,572,19,-11.92
1420,570,24,-9.83
1421,568,9,-9.74
1422,567,9,-9.65
1423,565,34,-9.56
1425,564,41,-8.47
1426,563,25,-8.38
1427,561,8,-8.29
1428,560,-8,-8.2
1430,559,-33,-7.11
1431,558,-36,-7.02
1432,557,-50,-6.93
1433,556,-62,-6.84
1435,556,-80,-6.74
1436,555,-71,-6.64
1437,555,-65,-6.54
1438,555,-37,-6.44
1440,555,-11,-7.35
1441,555,-16,-7.26
1442,555,-36,-7.17
1443,556,-31,-7.08
1445,556,-55,-5.94
1446,557,-48,-5.8
1447,558,-54,-5.66
1448,559,-74,-5.54
1450,561,-72,-0.47
1451,562,-50,-0.4
1452,563,-12,-0.28
1453,565,27,-0.16
1455,566,56,-0.04
1456,568,64,0.08
1457,569,63,0.2
1458,571,48,-0.71
1460,572,40,-0.62
1461,573,-30,-0.53
1462,574,-35,2.53
1463,576,-28,2.59
1465,577,-21,2.63
1466,578,39,2.67
1467,579,39,2.71
1468,581,47,3.74
1470,582,41,3.79
1471,583,40,3.84
1472,584,-23,3.89
1473,585,-13,3.94
1475,586,-24,5.97
1476,587,-17,6
1477,588,-17,6.03
1478,589,-7,6.06
1480,591,24,9.04
1481,592,39,9.02
1482,594,56,9
1483,596,119,8.98
1485,597,132,4
1486,599,123,4.02
1487,601,141,4.04
1488,602,126,4.06
1490,603,127,7.02
1491,604,94,6.98
1492,605,65,6.94
1493,605,12,6.9
1495,606,-40,4.89
1496,605,-54,4.88
1497,605,-59,4.87
1498,605,-21,4.86
1500,604,-52,7.81
1501,604,-119,7.76
1502,603,-70,7.71
1503,602,-109,7.66
1505,602,-111,5.61
1506,601,-98,5.56
1507,601,-125,5.51
1508,600,-98,5.46
1510,600,-99,7.36
1511,599,-82,7.26
1512,599,-78,7.16
1513,598,-68,7.06
1515,598,-51,5.98
1516,598,-23,5.9
1517,597,-1,5.82
1518,597,11,5.74
1520,596,25,3.7
1521,596,28,3.66
1522,596,45,3.62
1523,596,47,3.58
1525,595,62,4.52
1526,595,52,4.46
1527,595,58,4.4
1528,595,41,4.34
1530,595,53,1.31
1531,594,30,1.28
1532,594,37,1.25
1533,594,27,1.22
1535,593,21,1.15
1536,593,20,1.08
1537,592,12,1.01
1538,592,5,0.94
1540,592,4,2.81
1541,592,3,2.68
1542,591,-8,2.55
1543,591,11,2.42
1545,590,9,3.3
1546,590,7,3.18
1547,590,-6,3.06
1548,589,-15,2.94
1550,589,-26,2.83
1551,589,-41,2.72
1552,588,-66,2.61
1553,588,-86,2.5
1555,588,-104,1.41
1556,587,-92,1.32
1557,587,-81,1.23
1558,587,-26,1.14
1560,586,6,2.04
1561,585,13,1.94
1562,584,38,1.84
1563,583,40,1.74
1565,582,67,-0.35
1566,580,58,-0.44
1567,579,71,-0.53
1568,577,31,-0.62
1570,575,29,3.26
1571,574,35,3.14
1572,572,27,3.02
1573,570,78,2.9
1575,569,128,1.84
1576,567,125,1.78
1577,566,129,1.72
1578,564,135,0.67
1580,563,125,0.62
1581,561,65,0.57
1582,560,10,-5.42
1583,559,5,-5.42
1585,558,-5,-5.42
1586,557,48,-5.42
1587,556,35,-5.39
1588,556,23,-3.38
1590,555,17,-3.37
1591,555,-17,-3.36
1592,554,-84,-3.35
1593,554,-71,-3.33
1595,553,-86,-5.29
1596,553,-68,-5.25
1597,553,-91,-5.21
1598,552,-74,-5.17
1600,552,-82,-2.14
1601,552,-73,-2.11
1602,552,-69,-2.08
1603,552,-27,-2.05
1605,552,-41,-1.99
1606,552,-31,-1.93
1607,552,-57,-1.87
1608,552,-54,-1.81
1610,551,-68,2.16
1611,551,-70,2.13
1612,551,-70,2.1
1613,550,-94,2.07
1615,550,-113,3.06
1616,550,-98,3.05
1617,550,-84,3.04
1618,550,-31,3.03
1620,551,-47,5.97
1621,551,-44,5.91
1622,551,33,5.85
1623,551,39,5.79
1625,551,71,7.74
1626,551,19,7.69
1627,552,32,7.64
1628,552,42,7.59
1630,552,30,12.47
1631,552,13,12.35
1632,552,7,12.23
1633,552,4,12.11
1635,552,16,15.97
1636,552,12,15.83
1637,552,36,15.69
1638,552,38,15.55
1640,552,76,22.33
1641,552,79,22.11
1642,553,96,21.89
1643,553,96,21.67
1645,553,144,25.39
1646,553,131,25.11
1647,554,125,24.83
1648,554,92,24.55
1650,556,57,31.21
1651,557,30,30.87
1652,560,6,30.53
1653,562,-4,30.19
1655,565,-3,30.81
1656,568,-10,30.43
1657,571,-1,30.05
1658,574,-5,29.67
1660,574,5,34.24
1661,572,7,33.81
1662,569,21,33.38
1663,564,57,32.95
1665,558,81,28.58
1666,552,66,28.21
1667,546,33,27.84
1668,540,12,27.47
1670,541,-22,24.14
1671,548,-30,23.81
1672,560,-44,23.48
1673,577,-95,23.15
1675,603,-128,19.85
1676,639,-111,19.55
1677,681,-97,19.25
1678,728,-73,18.95
1680,786,-58,15.67
1681,853,-46,15.39
1682,927,-65,15.11
1683,1006,-52,14.83
1685,1094,-70,10.6
1686,1187,-67,10.37
1687,1285,-68,10.14
1688,1386,-74,9.91
1690,1488,-78,8.67
1691,1589,-63,8.43
1692,1690,-42,8.19
1693,1787,-12,7.95
1695,1876,25,4.78
1696,1955,40,4.61
1697,2026,41,4.44
1698,2080,49,0.31
1700,2120,49,0.17
1701,2146,13,0.03
1702,2155,11,-2.09
1703,2149,26,-2.22
1705,2130,35,-2.35
1706,2100,86,-2.48
1707,2062,70,-2.67
1708,2015,70,-2.86
1710,1960,62,-3.05
1711,1899,65,-3.24
1712,1835,55,-3.43
1713,1768,34,-3.6
1715,1697,43,-3.77
1716,1623,32,-3.94
1717,1548,24,-4.11
1718,1472,-21,-4.28
1720,1396,-38,-4.47
1721,1319,-39,-4.66
1722,1243,-36,-4.85
1723,1170,13,-5.04
1725,1097,-24,-5.2
1726,1027,-26,-5.36
1727,959,-41,-5.52
1728,894,-50,-5.68
1730,831,-72,-0.89
1731,772,-104,-1.1
1732,715,-61,-1.31
1733,661,-25,-1.52
1735,611,38,-2.68
1736,563,51,-2.84
1737,519,96,-3
1738,478,151,-3.16
1740,439,151,0.65
1741,404,115,0.46
1742,372,98,0.27
1743,342,69,0.08
1745,316,34,-0.08
1746,292,10,-0.24
1747,271,-17,-0.4
1748,253,-57,-0.56
1750,238,-85,-5.65
1751,225,-78,-5.74
1752,214,-74,-5.83
1753,205,-68,-5.92
1755,198,-30,-5.96
1756,192,-13,-6
1757,189,-20,-6.04
1758,186,-47,-6.08
1760,185,-51,-7.07
1761,185,-35,-7.06
1762,186,-41,-7.05
1763,188,-27,-7.04
1765,190,-17,-12.9
1766,193,0,-12.76
1767,197,23,-12.62
1768,201,30,-12.48
1770,205,46,-17.25
1771,209,49,-17.02
1772,213,95,-16.79
1773,217,94,-16.56
1775,221,100,-20.22
1776,225,87,-19.88
1777,229,53,-19.54
1778,232,21,-19.2
1780,236,1,-22.81
1781,239,-17,-22.42
1782,243,-19,-22.03
1783,246,-38,-21.64
1785,249,-25,-26.15
1786,252,-21,-25.66
1787,255,-4,-25.17
1788,257,1,-24.68
1790,259,23,-24.23
1791,261,20,-23.78
1792,263,13,-23.33
1793,264,0,-22.88
1795,265,-24,-22.46
1796,265,-30,-22.04
1797,265,-43,-21.62
1798,264,-5,-21.2
1800,262,12,-19.82
1801,261,6,-19.44
1802,259,-10,-19.06
1803,257,-12,-18.68
1805,254,-34,-15.36
1806,252,-36,-15.04
1807,250,-52,-14.72
1808,248,-64,-14.4
1810,246,-92,-13.13
1811,244,-76,-12.86
1812,242,-67,-12.59
1813,240,-5,-12.32
1815,238,18,-4.14
1816,237,17,-3.96
1817,235,23,-3.78
1818,234,21,-4.59
1820,233,18,-4.43
1821,232,-49,-4.27
1822,232,-46,-0.15
1823,231,-31,-0.07
1825,231,-25,0.01
1826,230,41,0.09
1827,230,32,0.15
1828,230,38,4.17
1830,230,35,4.19
1831,230,20,4.21
1832,231,-34,4.23
1833,231,-27,4.25
1835,232,-14,5.26
1836,232,-10,5.27
1837,233,13,5.28
1838,234,22,5.29
1840,235,29,4.31
1841,236,27,4.33
1842,237,29,4.35
1843,238,66,4.37
1845,240,43,4.39
1846,241,35,4.41
1847,243,26,4.43
1848,244,10,4.45
1850,245,6,5.46
1851,247,0,5.47
1852,248,-17,5.48
1853,249,-21,5.49
1855,250,-42,4.56
1856,252,-32,4.63
1857,253,-22,4.7
1858,254,9,4.77
1860,255,1,4.83
1861,256,0,4.89
1862,258,0,4.95
1863,259,2,5.01
1865,260,-4,5.11
1866,261,-5,5.21
1867,262,-7,5.31
1868,263,-31,5.41
1870,264,-55,1.55
1871,265,-51,1.69
1872,265,-34,1.83
1873,266,17,1.97
1875,266,10,2.06
1876,266,-51,2.15
1877,266,26,2.24
1878,267,-33,2.33
1880,267,-9,3.41
1881,267,5,3.49
1882,267,24,3.57
1883,267,36,3.65
1885,268,41,2.73
1886,268,35,2.81
1887,268,33,2.89
1888,268,21,2.97
1890,268,14,2.99
1891,268,18,3.01
1892,268,21,3.03
1893,267,23,3.05
1895,267,41,4.01
1896,267,42,3.97
1897,267,46,3.93
1898,267,48,3.89
1900,267,45,5.79
1901,267,32,5.69
1902,266,5,5.59
1903,266,-10,5.49
1905,265,-32,6.34
1906,264,-41,6.19
1907,263,-54,6.04
1908,262,-54,5.89
1910,261,-48,5.69
1911,260,-39,5.49
1912,258,-49,5.29
1913,257,-43,5.09
1915,256,-50,5.88
1916,255,-50,5.67
1917,254,-49,5.46
1918,253,12,5.25
1920,253,-1,2.07
1921,253,-4,1.89
1922,253,-14,1.71
1923,253,-12,1.53
1925,254,-22,4.33
1926,254,-23,4.13
1927,255,-39,3.93
1928,256,-53,3.73
1930,256,-79,2.57
1931,257,-66,2.41
1932,257,-64,2.25
1933,257,-24,2.09
1935,258,5,1.94
1936,258,14,1.79
1937,258,14,1.64
1938,259,12,1.49
1940,259,9,0.43
1941,259,7,0.37
1942,260,5,0.31
1943,260,-22,0.24
1945,260,-37,1.16
1946,260,-26,1.08
1947,261,7,1.04
1948,261,56,1
1950,261,73,0.96
1951,261,75,0.92
1952,261,84,0.88
1953,261,77,0.88
1955,261,75,-1.1
1956,261,64,-1.08
1957,261,51,-1.06
1958,262,33,-1.04
1960,262,18,-1.01
1961,263,13,-0.98
1962,264,24,-0.95
1963,266,61,-0.92
1965,267,85,-4.86
1966,269,63,-4.8
1967,271,64,-4.74
1968,273,50,-2.7
1970,276,37,-2.66
1971,279,-20,-2.62
1972,282,-36,-1.59
1973,286,-52,-1.56
1975,290,-36,-1.52
1976,294,31,-1.48
1977,299,32,-1.44
1978,304,33,-0.41
1980,309,37,-0.39
1981,314,35,-0.37
1982,320,33,-0.35
1983,326,20,-0.33
1985,332,12,1.67
1986,338,8,1.67
1987,345,2,1.67
1988,351,-31,1.67
1990,358,-80,1.67
1991,365,-81,1.67
1992,372,-78,1.67
1993,379,-29,1.67
1995,387,-45,2.62
1996,395,-41,2.57
1997,403,-39,2.52
1998,411,-36,2.47
2000,420,-103,3.41
2001,429,-110,3.35
2002,438,-110,3.29
2003,446,-102,3.23
2005,455,-103,4.17
2006,465,-92,4.11
2007,474,-87,4.05
2008,483,-61,3.99
2010,492,-32,4.91
2011,501,-10,4.83
2012,510,14,4.75
2013,518,37,4.67
2015,527,55,4.59
2016,535,53,4.51
2017,543,30,4.43
2018,550,24,4.35
2020,558,-29,7.25
2021,565,-52,7.15
2022,573,-75,7.05
2023,580,-75,6.95
2025,587,-95,9.84
2026,594,-83,9.73
2027,600,-80,9.62
2028,606,-61,9.51
2030,612,-43,8.42
2031,618,-29,8.33
2032,623,-19,8.24
2033,628,2,8.15
2035,633,30,6.08
2036,637,34,6.01
2037,641,41,5.94
2038,645,52,5.87
2040,649,64,9.77
2041,653,55,9.67
2042,656,76,9.57
2043,659,66,9.47
2045,662,39,9.34
2046,665,32,9.21
2047,667,77,9.08
2048,670,72,8.95
2050,672,74,8.85
2051,674,69,8.75
2052,676,63,8.65
2053,677,87,8.55
2055,679,90,8.44
2056,680,72,8.33
2057,681,79,8.22
2058,682,82,8.11
2060,684,140,5.03
2061,684,134,4.95
2062,685,156,4.87
2063,686,105,4.79
2065,687,69,1.73
2066,687,46,1.67
2067,688,38,1.61
2068,688,41,1.55
2070,688,40,1.5
2071,688,14,1.45
2072,688,-24,1.4
2073,688,-53,0.36
2075,687,-71,0.32
2076,687,-145,0.28
2077,686,-143,0.24
2078,686,-121,0.2
2080,685,-93,0.14
2081,684,-41,0.08
2082,684,-27,0.02
2083,683,-16,1.94
2085,683,-9,1.86
2086,682,1,1.78
2087,682,-26,1.7
2088,681,-25,1.62
2090,681,-15,0.51
2091,680,-6,0.4
2092,680,5,0.29
2093,679,3,0.2
2095,679,9,3.08
2096,679,11,2.96
2097,678,10,2.85
2098,678,50,2.74
2100,677,30,1.64
2101,677,25,1.54
2102,676,26,1.44
2103,676,23,1.35
2105,675,8,3.24
2106,675,9,3.13
2107,674,13,3.02
2108,674,-3,2.91
2110,673,-14,2.82
2111,672,-14,2.73
2112,672,34,2.64
2113,671,74,2.55
2115,670,68,2.46
2116,669,49,2.37
2117,669,41,2.28
2118,668,22,2.19
2120,667,21,3.1
2121,666,7,3.01
2122,665,2,2.92
2123,665,-28,2.83
2125,664,-49,3.74
2126,663,-37,3.65
2127,663,-41,3.56
2128,662,-40,3.47
2130,661,-4,0.42
2131,660,22,0.37
2132,660,1,0.32
2133,659,-9,0.27
2135,658,-54,1.22
2136,657,-61,1.17
2137,656,-56,1.12
2138,656,-48,1.07
2140,655,-47,3.99
2141,654,-26,3.91
2142,654,-11,3.83
2143,653,-2,3.75
2145,653,9,0.73
2146,652,9,0.71
2147,652,10,0.69
2148,652,21,0.67
2150,652,24,3.65
2151,652,21,3.63
2152,651,48,3.61
2153,651,24,3.59
2155,651,50,2.57
2156,651,54,2.55
2157,651,53,2.53
2158,651,45,2.51
2160,651,43,3.46
2161,651,42,3.41
2162,651,33,3.36
2163,652,21,3.31
2165,652,14,3.3
2166,652,3,3.29
2167,652,-4,3.28
2168,652,-4,3.27
2170,652,-5,3.26
2171,652,-7,3.25
2172,652,-1,3.24
2173,651,15,3.23
2175,651,21,3.22
2176,651,13,3.21
2177,651,-14,3.2
2178,650,-22,3.19
2180,650,-48,4.17
2181,650,-58,4.15
2182,651,-63,4.13
2183,651,-76,4.11
2185,651,-91,4.06
2186,651,-74,4.01
2187,652,-63,3.96
2188,652,-14,3.91
2190,652,-9,4.82
2191,652,-9,4.73
2192,652,-9,4.64
2193,652,-10,4.55
2195,653,-10,3.47
2196,653,-5,3.39
2197,653,-9,3.31
2198,653,-34,3.22
2200,653,-59,3.13
2201,653,-43,3.04
2202,653,-34,2.95
2203,652,13,2.86
2205,652,27,1.78
2206,652,-25,1.7
2207,652,64,1.62
2208,652,57,1.56
2210,652,60,-1.47
2211,652,55,-1.5
2212,651,51,-1.53
2213,651,24,-1.56
2215,650,8,-3.58
2216,650,-9,-3.6
2217,649,8,-3.62
2218,649,39,-3.64
2220,648,24,-5.61
2221,648,13,-5.58
2222,647,-6,-5.55
2223,646,-7,-5.52
2225,646,-16,-5.5
2226,645,-17,-5.48
2227,645,-5,-5.46
2228,644,-15,-5.44
2230,644,-21,-9.36
2231,644,-11,-9.28
2232,643,0,-9.2
2233,643,42,-9.12
2235,643,81,-11.02
2236,643,78,-10.92
2237,643,71,-10.82
2238,643,61,-8.74
2240,643,60,-8.66
2241,642,-5,-8.58
2242,642,-31,-9.49
2243,642,-14,-9.4
2245,642,-7,-9.3
2246,642,-3,-9.2
2247,642,44,-9.1
2248,642,29,-8.01
2250,642,33,-7.91
2251,642,15,-7.81
2252,641,-12,-7.71
2253,641,-29,-5.63
2255,640,-108,-5.58
2256,639,-97,-5.53
2257,638,-100,-5.48
2258,638,-72,-5.43
2260,637,-68,-3.39
2261,636,-59,-3.35
2262,634,-66,-3.31
2263,633,-48,-3.27
2265,632,-58,-4.19
2266,631,-36,-4.11
2267,629,-32,-4.03
2268,628,-23,-3.95
2270,626,2,0.06
2271,624,30,0.07
2272,623,43,0.08
2273,621,49,0.09
2275,619,58,0.13
2276,617,60,0.17
2277,615,58,0.21
2278,613,64,0.25
2280,611,71,1.27
2281,610,85,1.29
2282,609,88,1.31
2283,607,78,1.33
2285,606,65,3.34
2286,605,45,3.35
2287,604,24,3.36
2288,603,1,3.37
2290,602,-18,3.38
2291,600,-31,3.39
2292,599,-43,3.4
2293,598,-1,3.41
2295,597,-5,3.42
2296,597,-15,3.43
2297,596,-29,3.44
2298,596,-37,3.45
2300,595,-47,3.46
2301,596,-63,3.47
2302,596,-74,3.48
2303,597,-100,3.49
2305,598,-106,0.54
2306,599,-95,0.59
2307,600,-90,0.64
2308,602,-42,0.69
2310,603,-38,-0.25
2311,605,-40,-0.19
2312,607,-39,-0.13
2313,609,-42,-0.07
2315,611,-50,-0.99
2316,614,-50,-0.91
2317,616,-50,-0.83
2318,618,-85,-0.75
2320,621,-68,-5.63
2321,624,-60,-5.51
2322,626,-42,-5.39
2323,629,5,-5.27
2325,631,5,-3.17
2326,633,11,-3.07
2327,635,28,-2.97
2328,637,35,0.1
2330,638,45,0.16
2331,639,20,0.22
2332,639,12,-0.71
2333,640,24,-0.64
2335,641,43,-0.6
2336,641,92,-0.56
2337,641,85,-0.52
2338,642,105,-1.47
2340,642,100,-1.44
2341,643,84,-1.41
2342,643,73,-1.38
2343,644,55,-1.35
2345,645,45,1.63
2346,645,42,1.61
2347,646,45,1.59
2348,647,1,1.57
2350,648,20,3.53
2351,649,34,3.49
2352,649,49,3.45
2353,650,123,3.41
2355,650,119,5.31
2356,650,102,5.21
2357,650,93,5.11
2358,649,83,5.01
2360,649,50,8.85
2361,648,-26,8.69
2362,648,-34,8.53
2363,647,-35,8.39
2365,646,-36,8.25
2366,646,-47,8.11
2367,645,-51,7.96
2368,645,-6,7.81
2370,644,-20,9.64
2371,644,-20,9.47
2372,643,-28,9.3
2373,643,-12,9.14
2375,643,-20,7.99
2376,643,-4,7.84
2377,643,0,7.69
2378,643,-43,7.56
2380,643,-39,3.47
2381,643,-26,3.38
2382,642,-28,3.29
2383,642,-17,3.2
2385,642,-18,3.13
2386,642,-20,3.06
2387,642,-27,2.99
2388,641,-30,2.92
2390,641,-39,-2.11
2391,640,-40,-2.14
2392,640,-41,-2.17
2393,639,-54,-2.2
2395,638,-63,-4.17
2396,638,-76,-4.14
2397,637,-80,-4.11
2398,637,-84,-4.08
2400,636,-83,-9.99
2401,636,-106,-9.9
2402,635,-107,-9.81
2403,635,-92,-9.72
2405,635,-75,-8.63
2406,635,-75,-8.54
2407,634,-75,-8.45
2408,634,-64,-8.36
2410,634,-59,-9.24
2411,633,-44,-9.12
2412,633,-26,-9
2413,632,48,-8.88
2415,631,51,-11.73
2416,631,50,-11.58
2417,630,52,-11.43
2418,629,68,-11.28
2420,629,74,-15.09
2421,628,80,-14.9
2422,628,77,-14.71
2423,627,29,-14.52
2425,627,51,-13.34
2426,626,51,-13.16
2427,626,62,-12.98
2428,626,126,-12.8
2430,626,121,-18.59
2431,626,126,-18.38
2432,625,135,-18.17
2433,625,135,-17.96
2435,624,127,-14.79
2436,623,115,-14.62
2437,621,110,-14.45
2438,619,56,-14.28
2440,616,43,-11.15
2441,613,49,-11.02
2442,610,53,-10.89
2443,606,86,-10.76
2445,603,64,-10.68
2446,599,56,-10.6
2447,595,52,-10.52
2448,591,50,-11.43
2450,588,40,-11.32
2451,584,-19,-11.21
2452,580,-15,-6.15
2453,576,-15,-6.06
2455,573,-19,-5.97
2456,570,42,-5.88
2457,567,34,-5.8
2458,564,16,-4.73
2460,561,21,-4.66
2461,559,-17,-4.59
2462,557,-59,-4.52
2463,555,-68,-4.46
2465,553,-80,0.55
2466,552,-87,0.56
2467,551,-88,0.57
2468,550,-82,0.58
2470,549,-90,0.62
2471,548,-91,0.66
2472,547,-83,0.7
2473,546,-33,0.74
2475,545,-46,1.79
2476,544,-57,1.84
2477,543,-67,1.89
2478,542,-60,1.94
2480,542,-77,4.98
2481,541,-92,5.02
2482,540,-96,5.06
2483,539,-150,5.1
2485,539,-145,6.17
2486,538,-124,6.24
2487,538,-106,6.31
2488,538,-43,6.38
2490,538,-30,7.44
2491,538,-19,7.5
2492,538,3,7.56
2493,537,5,7.62
2495,537,19,3.74
2496,537,27,3.86
2497,537,20,3.98
2498,537,-34,4.1
2500,538,-13,7.18
2501,538,2,7.26
2502,538,22,7.34
2503,538,73,7.42
2505,539,19,3.5
2506,539,83,3.58
2507,540,78,3.66
2508,540,66,3.74
2510,541,8,6.79
2511,542,3,6.84
2512,543,-3,6.89
2513,545,1,6.94
2515,547,-6,3.97
2516,550,0,4
2517,554,7,4.03
2518,557,12,4.06
2520,559,19,4.07
2521,560,17,4.08
2522,560,22,4.09
2523,558,24,4.1
2525,555,14,1.08
2526,550,9,1.06
2527,544,4,1.04
2528,538,7,1.02
2530,536,10,4.97
2531,539,13,4.92
2532,546,20,4.87
2533,555,3,4.82
2535,575,8,-0.19
2536,603,63,-0.2
2537,636,53,-0.21
2538,675,40,-0.22
2540,725,21,1.72
2541,784,19,1.66
2542,848,15,1.6
2543,918,-38,1.54
2545,997,-49,1.44
2546,1084,-27,1.34
2547,1176,-5,1.24
2548,1271,-2,1.14
2550,1371,21,1.05
2551,1473,27,0.96
2552,1577,33,0.87
2553,1680,34,0.78
2555,1777,43,0.63
2556,1869,63,0.48
2557,1954,64,0.33
2558,2034,79,0.18
2560,2098,77,-0.93
2561,2148,68,-1.04
2562,2185,68,-1.15
2563,2212,122,-1.26
2565,2223,105,-0.35
2566,2219,90,-0.44
2567,2204,71,-0.53
2568,2179,51,-0.62
2570,2142,37,0.28
2571,2096,24,0.18
2572,2042,14,0.08
2573,1982,-10,-0.03
2575,1917,-9,-2.12
2576,1847,-8,-2.21
2577,1774,-5,-2.25
2578,1699,38,-2.29
2580,1622,19,-6.29
2581,1543,-27,-6.29
2582,1464,6,-6.29
2583,1387,-42,-6.28
2585,1309,-49,-6.27
2586,1233,-69,-6.26
2587,1158,-78,-6.25
2588,1087,-78,-6.24
2590,1017,-74,-10.14
2591,950,-85,-10.04
2592,886,-85,-9.94
2593,826,-29,-9.84
2595,768,-17,-8.75
2596,713,-28,-8.66
2597,662,-24,-8.57
2598,614,-25,-8.48
2600,569,-37,-10.36
2601,527,-38,-10.24
2602,489,-49,-10.12
2603,453,-95,-10
2605,421,-105,-5.89
2606,391,-111,-5.78
2607,365,-99,-5.67
2608,341,-48,-5.56
2610,320,-60,-6.43
2611,301,-57,-6.3
2612,285,-69,-6.17
2613,271,-87,-8.02
2615,259,-86,-7.86
2616,249,-111,-7.7
2617,240,-122,-4.57
2618,233,-101,-4.44
2620,228,-85,-4.35
2621,224,-13,-4.26
2622,221,-8,-4.17
2623,219,-9,-4.08
2625,218,1,-3.96
2626,217,18,-3.84
2627,218,16,-3.72
2628,218,-40,-2.61
2630,219,-22,-2.54
2631,221,1,-2.47
2632,223,24,-2.4
2633,225,60,-2.33
2635,227,62,1.73
2636,229,92,1.79
2637,232,117,1.85
2638,234,104,1.91
2640,237,103,-0.04
2641,240,98,0.01
2642,243,77,0.06
2643,245,92,0.11
2645,248,93,2.14
2646,251,88,2.17
2647,254,80,2.2
2648,257,90,2.23
2650,260,106,3.22
2651,262,103,3.21
2652,264,100,3.2
2653,266,91,3.19
2655,268,102,2.23
2656,270,91,2.27
2657,272,82,2.31
2658,273,82,2.35
2660,274,76,1.35
2661,275,79,1.35
2662,276,77,1.35
2663,277,70,1.35
2665,278,72,2.36
2666,279,58,2.37
2667,279,46,2.38
2668,280,14,2.39
2670,281,49,1.41
2671,281,32,1.43
2672,282,15,1.45
2673,283,-17,1.47
2675,284,-36,1.49
2676,284,-55,1.51
2677,285,-64,1.53
2678,286,-90,1.55
2680,287,-85,-1.4
2681,288,-76,-1.35
2682,289,-63,-1.3
2683,291,-1,-1.25
2685,292,10,-3.19
2686,293,10,-3.13
2687,294,14,-3.07
2688,295,9,-3.01
2690,296,8,-5.91
2691,297,2,-5.81
2692,297,-18,-5.71
2693,298,-85,-5.61
2695,299,-95,-7.48
2696,299,-89,-7.35
2697,299,-104,-7.22
2698,300,-47,-7.09
2700,300,-86,-7.97
2701,301,-108,-7.85
2702,301,-122,-7.73
2703,301,-150,-7.61
2705,302,-148,-7.53
2706,302,-189,-7.45
2707,302,-160,-4.4
2708,303,-125,-4.35
2710,303,-92,-4.3
2711,304,-23,-4.25
2712,304,-1,-4.2
2713,305,-1,-5.14
2715,305,6,-5.12
2716,306,-20,-5.1
2717,306,-35,-5.08
2718,307,-32,-5.06
2720,307,-35,-8.99
2721,308,-33,-8.92
2722,308,-26,-8.85
2723,309,-22,-8.78
2725,309,-29,-4.77
2726,310,-27,-4.76
2727,310,-17,-4.75
2728,311,34,-4.74
2730,312,38,-5.68
2731,312,49,-5.62
2732,313,63,-5.56
2733,313,72,-5.5
2735,313,88,-3.47
2736,314,84,-3.44
2737,314,90,-3.41
2738,315,43,-3.4
2740,315,54,-2.4
2741,315,55,-2.4
2742,315,69,-2.37
2743,316,107,-2.34
2745,316,97,2.64
2746,316,91,2.62
2747,316,84,2.6
2748,316,77,2.58
2750,315,72,4.54
2751,315,65,4.5
2752,314,54,4.46
2753,314,-19,4.43
2755,313,3,6.38
2756,313,14,6.33
2757,312,16,6.28
2758,311,19,6.23
2760,310,26,8.2
2761,310,19,8.17
2762,309,96,8.14
2763,308,18,8.11
2765,308,19,9.05
2766,307,8,8.99
2767,306,10,8.93
2768,305,7,8.87
2770,303,5,13.78
2771,302,-1,13.69
2772,300,-1,13.6
2773,298,-14,13.51
2775,296,-22,10.46
2776,294,-36,10.41
2777,292,-48,10.36
2778,290,-66,10.31
2780,288,-74,16.19
2781,286,-77,16.07
2782,284,-68,15.95
2783,282,-62,15.83
2785,280,-50,15.7
2786,278,-52,15.57
2787,276,-68,15.44
2788,274,-5,15.31
2790,272,-11,16.18
2791,270,-33,16.05
2792,268,-36,15.92
2793,266,-36,15.79
2795,263,-37,15.65
2796,261,-41,15.51
2797,259,-49,15.37
2798,257,-96,15.23
2800,255,-91,16.08
2801,253,-90,15.93
2802,252,-75,15.78
2803,250,-18,15.63
2805,248,-24,15.45
2806,247,-28,15.27
2807,245,-25,15.09
2808,243,-27,14.91
2810,242,-27,13.72
2811,241,-25,13.53
2812,239,-29,13.34
2813,238,-88,13.15
2815,237,-66,15.9
2816,237,-49,15.65
2817,236,-31,15.4
2818,236,-28,15.15
2820,236,-7,10.92
2821,236,-1,10.69
2822,237,68,10.46
2823,238,58,10.23
2825,239,57,9
2826,240,56,8.77
2827,242,56,8.54
2828,244,11,8.31
2830,246,17,6.1
2831,248,31,5.89
2832,251,53,5.71
2833,253,109,5.53
2835,256,125,3.37
2836,260,131,3.21
2837,263,127,3.05
2838,267,106,2.88
2840,272,80,2.71
2841,277,78,2.54
2842,282,80,2.37
2843,287,36,2.2
2845,293,35,1
2846,299,37,0.8
2847,306,67,0.6
2848,312,121,0.4
2850,319,96,-1.74
2851,326,98,-1.88
2852,333,90,-2.02
2853,341,85,-3.15
2855,349,71,-3.29
2856,356,22,-3.43
2857,365,-2,-5.55
2858,374,0,-5.67
2860,383,3,-5.77
2861,392,-15,-5.87
2862,400,23,-5.97
2863,410,20,-4.09
2865,419,13,-4.2
2866,428,-8,-4.31
2867,437,-28,-4.42
2868,446,-80,-4.53
2870,455,-88,-3.6
2871,464,-86,-3.67
2872,473,-84,-3.74
2873,481,-64,-3.81
2875,490,-27,-3.86
2876,498,-3,-3.91
2877,506,12,-3.96
2878,514,17,-4.01
2880,522,86,-3.05
2881,530,63,-3.09
2882,538,-7,-3.13
2883,545,-56,-3.17
2885,552,-91,-4.18
2886,560,-97,-4.19
2887,567,-108,-4.2
2888,574,-141,-4.21
2890,580,-148,-3.22
2891,586,-132,-3.23
2892,592,-130,-3.24
2893,598,-150,-3.25
2895,603,-145,-3.21
2896,608,-137,-3.17
2897,613,-142,-3.13
2898,618,-128,-3.09
2900,622,-104,0.88
2901,626,-55,0.85
2902,630,-23,0.82
2903,634,-42,0.79
2905,638,-54,-0.17
2906,641,-57,-0.13
2907,644,-31,-0.09
2908,646,1,-0.05
2910,649,23,1.97
2911,651,28,1.99
2912,653,40,2.01
2913,655,21,2.03
2915,656,-2,1.07
2916,657,-7,1.11
2917,658,10,1.15
2918,658,36,1.19
2920,659,72,2.22
2921,659,86,2.25
2922,659,77,2.28
2923,659,126,2.31
2925,659,103,2.35
2926,658,86,2.39
2927,658,72,2.43
2928,657,58,2.47
2930,656,47,4.49
2931,655,40,4.51
2932,654,30,4.53
2933,653,3,4.55
2935,653,8,2.58
2936,652,24,2.61
2937,651,42,2.64
2938,651,110,2.67
2940,650,106,4.71
2941,650,114,4.75
2942,649,113,4.79
2943,649,110,4.83
2945,648,104,4.83
2946,648,95,4.83
2947,647,91,4.83
2948,647,50,4.83
2950,647,71,6.8
2951,646,94,6.77
2952,646,87,6.74
2953,645,155,6.71
2955,645,134,6.66
2956,645,113,6.61
2957,644,88,6.56
2958,644,55,10.47
2960,644,4,10.36
2961,644,-58,10.25
2962,644,-76,7.17
2963,643,-71,7.09
2965,643,-54,7.01
2966,643,-15,6.93
2967,643,-14,6.85
2968,643,-15,4.79
2970,642,-12,4.72
2971,642,-34,4.65
2972,641,-77,4.58
2973,641,-67,4.51
2975,640,-73,2.44
2976,640,-66,2.37
2977,639,-65,2.3
2978,638,-60,2.22
2980,638,-60,6.1
2981,637,-71,5.98
2982,636,-56,5.84
2983,636,-3,5.7
2985,635,-20,0.61
2986,635,-39,0.52
2987,634,-44,0.43
2988,634,-53,0.36
2990,633,-50,3.26
2991,633,-57,3.16
2992,632,-66,3.06
2993,632,-112,2.96
2995,632,-96,1.88
2996,631,-85,1.8
2997,630,-62,1.72
2998,629,-8,1.64
3000,629,8,1.56
3001,628,14,1.48
3002,627,15,1.4
3003,627,-31,1.32
3005,626,-21,3.23
3006,626,-16,3.14
3007,625,-11,3.05
3008,625,-7,2.96
3010,624,1,5.83
3011,624,16,5.7
3012,623,23,5.57
3013,622,33,5.44
3015,622,33,6.31
3016,621,63,6.18
3017,620,70,6.05
3018,619,67,5.92
3020,619,68,5.79
3021,618,70,5.66
3022,618,73,5.53
3023,618,59,5.4
3025,618,56,7.29
3026,618,48,7.18
3027,618,33,7.07
3028,618,79,6.96
3030,618,62,4.86
3031,618,45,4.76
3032,618,32,4.66
3033,618,29,4.56
3035,618,8,5.47
3036,618,4,5.38
3037,617,-12,5.29
3038,617,-59,5.2
3040,617,-74,3.12
3041,617,-65,3.04
3042,617,-54,2.96
3043,617,-46,2.88
3045,617,-29,3.8
3046,617,-30,3.72
3047,618,-16,3.64
3048,618,-9,3.56
3050,618,5,-0.48
3051,618,11,-0.52
3052,618,16,-0.56
3053,618,15,-0.6
3055,618,7,-2.6
3056,619,-7,-2.6
3057,619,-7,-2.6
3058,619,40,-2.6
3060,620,21,-0.64
3061,620,16,-0.68
3062,620,-10,-0.72
3063,621,-17,-0.76
3065,621,-34,-2.76
3066,621,-39,-2.76
3067,622,-46,-2.76
3068,622,-70,-2.76
3070,622,-84,-1.77
3071,622,-75,-1.78
3072,622,-64,-1.79
3073,622,6,-1.8
3075,622,1,-2.78
3076,623,-1,-2.76
3077,623,0,-2.74
3078,623,-7,-2.72
3080,623,4,-3.69
3081,623,11,-3.66
3082,624,15,-3.63
3083,624,-35,-3.56
3085,624,-12,-8.44
3086,624,17,-8.32
3087,625,31,-8.23
3088,625,65,-8.14
3090,625,47,-7.06
3091,624,49,-6.98
3092,624,36,-6.9
3093,623,20,-9.81
3095,622,8,-9.72
3096,622,-26,-9.63
3097,621,-34,-9.54
3098,620,-31,-9.45
3100,619,-27,-9.38
3101,618,31,-9.31
3102,616,23,-9.24
3103,615,34,-9.17
3105,614,28,-9.06
3106,613,18,-8.95
3107,611,-11,-8.84
3108,610,-12,-8.73
3110,609,-13,-10.65
3111,607,-8,-10.57
3112,605,2,-10.49
3113,604,12,-10.41
3115,602,21,-12.28
3116,600,29,-12.15
3117,598,35,-12.02
3118,596,104,-11.89
3120,595,85,-18.7
3121,593,74,-18.51
3122,591,51,-18.32
3123,589,26,-18.13
3125,588,14,-15.96
3126,586,-5,-15.79
3127,585,-23,-15.62
3128,584,-96,-15.45
3130,583,-83,-16.25
3131,581,-76,-16.05
3132,580,-58,-15.85
3133,579,-49,-15.65
3135,577,-25,-19.38
3136,576,-18,-19.11
3137,574,47,-18.84
3138,573,41,-18.57
3140,572,-15,-15.32
3141,571,-17,-15.07
3142,570,-17,-14.82
3143,569,-18,-14.57
3145,568,-17,-15.31
3146,567,-15,-15.05
3147,567,-14,-14.79
3148,566,-17,-14.53
3150,566,-18,-10.29
3151,566,-25,-10.05
3152,567,-31,-9.81
3153,567,-33,-9.57
3155,568,-27,-10.34
3156,569,-22,-10.11
3157,571,-20,-9.88
3158,573,-15,-9.65
3160,575,-15,-5.45
3161,577,-4,-5.25
3162,580,-15,-5.05
3163,583,-20,-4.85
3165,586,-11,0.28
3166,589,-9,0.41
3167,592,56,0.54
3168,596,45,0.67
3170,599,38,2.79
3171,601,34,2.91
3172,604,20,3.03
3173,606,-36,3.15
3175,608,-55,4.22
3176,609,-48,4.29
3177,611,-32,4.36
3178,612,37,4.43
3180,613,41,8.44
3181,614,49,8.45
3182,614,49,8.46
3183,615,43,8.47
3185,615,36,11.47
3186,615,28,11.47
3187,615,18,11.47
3188,615,-12,11.47
3190,615,-18,16.4
3191,615,-12,16.33
3192,615,-7,16.26
3193,616,25,16.19
3195,616,29,15.14
3196,616,27,15.09
3197,617,34,15.04
3198,617,24,14.99
3200,617,22,17.9
3201,617,20,17.81
3202,617,17,17.72
3203,617,-36,17.63
3205,617,-29,15.55
3206,616,-22,15.47
3207,616,-16,15.39
3208,615,49,15.31
3210,615,24,14.19
3211,614,23,14.07
3212,613,11,13.95
3213,612,-11,15.81
3215,611,-25,15.68
3216,611,-40,15.55
3217,610,-49,13.44
3218,609,-42,13.3
3220,609,-31,13.16
3221,608,2,13.02
3222,607,4,12.88
3223,607,0,11.75
3225,606,-12,11.62
3226,606,-20,11.49
3227,605,-22,11.36
3228,605,-30,11.23
3230,605,-37,13.08
3231,604,-48,12.93
3232,604,-43,12.78
3233,603,-93,12.63
3235,602,-71,9.49
3236,602,-56,9.35
3237,601,-40,9.21
3238,601,22,9.07
3240,600,25,10.89
3241,600,32,10.71
3242,599,38,10.53
3243,599,31,10.35
3245,599,20,12.08
3246,598,22,11.81
3247,598,11,11.54
3248,598,-38,11.27
3250,598,-35,10.03
3251,598,-31,9.79
3252,598,-30,9.55
3253,597,27,9.31
3255,597,-28,6.09
3256,597,31,5.87
3257,597,35,5.65
3258,597,42,5.43
3260,598,-5,3.19
3261,598,4,2.95
3262,598,2,2.71
3263,598,18,2.47
3265,598,37,4.24
3266,598,53,4.01
3267,597,52,3.78
3268,597,61,3.55
3270,597,58,1.33
3271,597,61,1.11
3272,597,51,0.89
3273,597,55,0.67
3275,596,45,-1.49
3276,596,44,-1.65
3277,596,40,-1.81
3278,595,24,-1.97
3280,595,27,-4.12
3281,595,21,-4.27
3282,594,1,-4.42
3283,594,-17,-4.57
3285,593,-16,-2.7
3286,593,-29,-2.83
3287,593,-31,-2.96
3288,593,-22,-3.09
3290,592,-17,-6.14
3291,592,-13,-6.19
3292,591,-2,-6.24
3293,591,7,-6.29
3295,590,18,-8.3
3296,590,27,-8.31
3297,590,32,-8.32
3298,589,90,-8.33
3300,589,80,-7.34
3301,589,61,-7.35
3302,590,44,-7.36
3303,590,28,-7.37
3305,590,15,-10.31
3306,590,-9,-10.25
3307,591,-26,-10.19
3308,591,-70,-10.13
3310,591,-87,-6.08
3311,590,-76,-6.03
3312,589,-65,-5.98
3313,588,-16,-5.93
3315,587,-10,-8.8
3316,585,-21,-8.67
3317,584,-16,-8.54
3318,582,-29,-8.41
3320,580,-29,-8.29
3321,578,-27,-8.17
3322,576,-25,-8.05
3323,573,-55,-7.93
3325,571,-48,-8.77
3326,569,-35,-8.61
3327,567,-18,-8.45
3328,565,35,-8.29
3330,563,22,-9.14
3331,561,19,-8.99
3332,559,22,-8.84
3333,558,17,-8.69
3335,556,13,-8.55
3336,554,-13,-8.41
3337,553,-24,-9.26
3338,552,-29,-9.09
3340,551,-17,-8.92
3341,550,15,-8.75
3342,549,16,-8.6
3343,548,14,-11.42
3345,548,-28,-11.24
3346,547,-20,-11.06
3347,546,-55,-10.88
3348,546,-59,-10.71
3350,545,-58,-7.57
3351,545,-43,-7.43
3352,544,-39,-7.29
3353,544,-18,-7.15
3355,543,-14,-8.97
3356,543,1,-8.79
3357,543,-3,-8.61
3358,543,52,-8.43
3360,543,43,-7.29
3361,544,41,-7.15
3362,546,37,-7.01
3363,548,36,-6.87
3365,551,26,-7.7
3366,555,26,-7.53
3367,559,24,-7.36
3368,564,-35,-7.19
3370,568,-33,-3.04
3371,571,-27,-2.89
3372,572,-6,-2.74
3373,573,41,-2.59
3375,571,39,-4.43
3376,568,35,-4.27
3377,563,35,-4.11
3378,557,-25,-3.95
3380,555,-36,-5.8
3381,557,-26,-5.65
3382,561,-16,-5.5
3383,569,-13,-5.35
3385,586,5,-3.24
3386,610,2,-3.13
3387,642,5,-3.02
3388,678,-3,-2.91
3390,725,2,-4.76
3391,780,-7,-4.61
3392,841,-12,-4.46
3393,907,-25,-4.31
3395,983,-23,-5.17
3396,1067,-6,-5.03
3397,1156,-3,-4.89
3398,1249,17,-4.75
3400,1347,21,-6.61
3401,1449,24,-6.47
3402,1553,31,-6.33
3403,1657,26,-6.19
3405,1756,27,-12.01
3406,1851,23,-11.83
3407,1940,24,-11.65
3408,2024,19,-11.47
3410,2093,21,-7.31
3411,2148,33,-7.15
3412,2191,38,-6.99
3413,2223,45,-6.83
3415,2238,50,-13.63
3416,2240,72,-13.43
3417,2228,74,-13.23
3418,2207,128,-13.03
3420,2173,128,-9.88
3421,2129,123,-9.73
3422,2077,116,-9.58
3423,2019,126,-9.43
3425,1954,58,-10.26
3426,1884,22,-10.09
3427,1811,-9,-9.92
3428,1736,-53,-9.75
3430,1658,-86,-11.59
3431,1578,-89,-11.43
3432,1498,-92,-11.27
3433,1419,-38,-11.11
3435,1340,-44,-11.9
3436,1261,-43,-11.69
3437,1185,-34,-11.48
3438,1111,-32,-11.27
3440,1039,-30,-10.1
3441,969,-30,-9.93
3442,903,-22,-9.76
3443,841,-61,-9.59
3445,781,-44,-10.41
3446,725,-13,-10.23
3447,672,4,-10.05
3448,622,75,-9.87
3450,576,50,-9.7
3451,533,53,-9.53
3452,493,19,-9.36
3453,456,-35,-8.2
3455,422,-85,-8.05
3456,391,-151,-7.9
3457,363,-174,-5.77
3458,337,-165,-5.64
3460,314,-154,-5.51
3461,294,-145,-5.38
3462,276,-73,-5.26
3463,261,-87,-4.15
3465,247,-87,-4.04
3466,236,-70,-3.93
3467,226,-71,-3.82
3468,219,-120,-3.74
3470,212,-135,-1.68
3471,207,-120,-1.62
3472,203,-100,-1.56
3473,200,-79,-1.5
3475,197,-52,-4.38
3476,196,-30,-4.26
3477,195,7,-4.14
3478,195,94,-4.02
3480,195,105,-3.92
3481,196,104,-3.82
3482,197,101,-3.72
3483,198,96,-3.62
3485,200,117,-4.5
3486,202,112,-4.38
3487,204,110,-4.26
3488,206,69,-4.14
3490,209,74,-7
3491,211,86,-6.86
3492,213,90,-6.72
3493,216,125,-6.58
3495,218,115,-10.36
3496,220,94,-10.14
3497,223,94,-9.92
3498,225,84,-9.7
3500,227,73,-12.47
3501,229,69,-12.24
3502,231,54,-12.01
3503,233,-5,-11.78
3505,235,2,-16.52
3506,237,11,-16.26
3507,239,11,-16
3508,240,0,-15.74
3510,242,30,-18.43
3511,243,46,-18.12
3512,245,94,-17.81
3513,246,-12,-17.5
3515,247,-51,-20.18
3516,248,-61,-19.86
3517,249,-72,-19.54
3518,250,-63,-19.22
3520,250,-72,-22.87
3521,251,-67,-22.52
3522,252,-50,-22.17
3523,253,-42,-21.82
3525,254,-27,-20.5
3526,255,-20,-20.18
3527,256,-13,-19.86
3528,257,7,-19.54
3530,258,27,-23.24
3531,258,47,-22.94
3532,259,70,-22.64
3533,260,69,-22.34
3535,260,75,-19.03
3536,261,79,-18.72
3537,261,76,-18.41
3538,262,79,-18.1
3540,263,67,-17.86
3541,263,63,-17.62
3542,264,50,-17.38
3543,265,33,-17.14
3545,266,30,-17.86
3546,267,25,-17.58
3547,268,8,-17.3
3548,270,-8,-17.02
3550,271,-19,-11.8
3551,272,-39,-11.58
3552,273,-44,-11.36
3553,274,-10,-11.14
3555,275,-31,-10.94
3556,276,-49,-10.74
3557,277,-64,-10.54
3558,278,-78,-10.34
3560,279,-91,-8.17
3561,280,-95,-8
3562,281,-82,-7.83
3563,282,-108,-7.66
3565,283,-95,-8.47
3566,284,-83,-8.28
3567,285,-62,-8.09
3568,286,-9,-7.9
3570,286,7,-8.71
3571,286,14,-8.52
3572,287,25,-8.33
3573,287,30,-6.16
3575,286,32,-5.99
3576,286,8,-5.82
3577,286,-8,-6.64
3578,286,-3,-6.45
3580,286,4,-6.26
3581,285,40,-6.07
3582,285,21,-5.86
3583,285,26,-3.67
3585,284,26,-3.48
3586,284,11,-3.29
3587,284,-39,-3.1
3588,284,-26,-2.9
3590,283,-24,-3.69
3591,283,-23,-3.48
3592,283,-9,-3.27
3593,282,-6,-3.06
3595,282,-6,-0.85
3596,281,2,-0.64
3597,281,-10,-0.43
3598,280,23,-0.22
3600,280,34,-0.04
3601,279,14,0.14
3602,279,13,0.32
3603,279,14,0.5
3605,278,1,-0.31
3606,278,9,-0.12
3607,278,23,0.07
3608,278,-19,0.26
3610,277,-11,-0.55
3611,277,-4,-0.36
3612,276,3,-0.17
3613,275,70,0.02
3615,274,55,-1.8
3616,273,34,-1.62
3617,272,27,-1.44
3618,270,0,-1.26
3620,269,-14,-0.13
3621,268,-28,-0
3622,266,-50,0.13
3623,265,-112,0.26
3625,263,-103,-3.6
3626,262,-110,-3.46
3627,260,-96,-3.32
3628,259,-41,-3.18
3630,258,-104,-1.11
3631,256,-29,-1.04
3632,254,-24,-0.97
3633,252,-23,-0.9
3635,251,-67,-4.82
3636,249,-79,-4.74
3637,247,-57,-4.66
3638,245,-38,-4.58
3640,243,-39,-2.55
3641,241,-18,-2.52
3642,238,-4,-2.49
3643,236,3,-2.46
3645,234,28,-2.47
3646,232,3,-2.48
3647,230,7,-2.49
3648,228,13,-2.5
3650,226,2,-1.51
3651,224,17,-1.52
3652,221,24,-1.53
3653,219,12,-1.54
3655,217,36,1.38
3656,215,32,1.3
3657,212,23,1.22
3658,210,29,1.14
3660,208,15,5.05
3661,206,12,4.96
3662,204,23,4.87
3663,202,9,4.78
3665,201,6,7.66
3666,199,20,7.54
3667,198,13,7.42
3668,196,24,7.3
3670,195,45,10.14
3671,194,52,9.98
3672,193,91,9.82
3673,193,146,9.66
3675,192,151,8.56
3676,192,163,8.46
3677,193,163,8.36
3678,193,137,8.26
3680,194,132,8.16
3681,196,111,8.06
3682,197,77,7.96
3683,200,12,7.86
3685,202,0,9.76
3686,205,-23,9.66
3687,208,-7,9.56
3688,212,27,9.46
3690,215,9,8.36
3691,220,-5,8.26
3692,224,-32,8.16
3693,229,-50,8.06
3695,234,-51,9.93
3696,239,-82,9.8
3697,245,-93,9.67
3698,251,-135,9.56
3700,257,-124,8.46
3701,263,-109,8.36
3702,270,-90,8.25
3703,277,-37,8.14
3705,284,-30,9.02
3706,292,-24,8.9
3707,300,-26,8.78
3708,308,-24,10.66
3710,316,-34,10.54
3711,325,-70,10.42
3712,334,-77,12.28
3713,344,-74,12.14
3715,353,-63,11.99
3716,363,1,11.84
3717,372,2,11.69
3718,381,-1,10.55
3720,391,14,10.43
3721,400,8,10.31
3722,409,-50,10.19
3723,418,-41,10.07
3725,427,-8,9.95
3726,436,17,9.83
3727,445,36,9.71
3728,453,47,9.59
3730,461,75,9.46
3731,470,93,9.33
3732,477,76,9.2
3733,485,103,9.07
3735,492,78,8.93
3736,499,43,8.79
3737,506,11,8.65
3738,513,-7,8.51
3740,519,-28,11.32
3741,525,-41,11.13
3742,532,-49,10.94
3743,538,-97,10.75
3745,543,-100,7.6
3746,549,-89,7.45
3747,554,-87,7.3
3748,560,-42,7.15
3750,564,-63,7.95
3751,569,-109,7.75
3752,573,-47,7.55
3753,577,-29,7.35
3755,581,-63,10.14
3756,585,-34,9.93
3757,588,-3,9.72
3758,591,51,9.51
3760,594,47,7.28
3761,596,34,7.05
3762,599,60,6.82
3763,601,52,6.59
3765,603,44,8.36
3766,604,41,8.13
3767,606,31,7.9
3768,607,24,7.67
3770,608,31,7.44
3771,609,46,7.21
3772,610,91,6.98
3773,611,97,6.75
3775,611,97,6.53
3776,612,94,6.31
3777,612,75,6.09
3778,612,51,5.87
3780,612,57,3.7
3781,612,59,3.53
3782,612,40,3.36
3783,612,38,3.19
3785,612,19,3.06
3786,611,-7,2.93
3787,611,-35,2.8
3788,611,-51,2.67
3790,610,-62,1.58
3791,610,-55,1.49
3792,609,-54,1.4
3793,608,-26,1.31
3795,608,-29,0.26
3796,607,-28,0.21
3797,607,-31,0.16
3798,606,-42,0.11
3800,606,-42,2.03
3801,605,-29,1.95
3802,605,-25,1.87
3803,605,-68,1.79
3805,604,-41,0.72
3806,604,-30,0.65
3807,604,-18,0.58
3808,603,39,0.51
3810,603,47,3.43
3811,602,38,3.35
3812,601,45,3.27
3813,600,50,3.19
3815,599,45,5.08
3816,598,39,4.97
3817,597,30,4.86
3818,596,4,4.75
3820,594,3,3.67
3821,593,11,3.59
3822,592,15,3.51
3823,590,90,3.43
3825,589,87,4.33
3826,587,86,4.23
3827,586,79,4.13
3828,584,95,6.01
3830,582,99,5.9
3831,580,34,5.79
3832,579,26,4.69
3833,577,11,4.61
3835,576,3,4.53
3836,575,70,4.45
3837,574,58,4.39
3838,573,49,6.31
3840,572,40,6.23
3841,571,25,6.15
3842,571,11,6.07
3843,570,-12,5.98
3845,570,-25,6.88
3846,570,-44,6.78
3847,570,-45,6.68
3848,570,-91,6.58
3850,570,-93,12.42
3851,570,-72,12.26
3852,570,-49,12.1
3853,570,23,11.94
3855,571,25,9.8
3856,571,33,9.66
3857,572,35,9.52
3858,573,24,9.38
3860,574,11,6.27
3861,576,-53,6.16
3862,577,-50,6.05
3863,579,-61,5.94
3865,580,-58,6.85
3866,582,-57,6.76
3867,584,-51,6.67
3868,586,17,6.58
3870,587,7,7.45
3871,589,-12,7.32
3872,590,-17,7.19
3873,592,-31,7.06
3875,593,-42,7.93
3876,594,-45,7.8
3877,594,-43,7.67
3878,595,-104,7.54
3880,596,-85,1.5
3881,596,-63,1.46
3882,597,-48,1.42
3883,597,-41,1.38
3885,598,-34,3.3
3886,599,3,3.22
3887,599,21,3.14
3888,600,12,3.06
3890,601,12,3
3891,601,12,2.94
3892,602,3,2.88
3893,602,-1,2.82
3895,602,-11,2.76
3896,603,-13,2.7
3897,603,-17,2.64
3898,604,-16,2.58
3900,604,-21,0.54
3901,605,-21,0.5
3902,605,-11,0.46
3903,606,4,0.42
3905,606,3,0.36
3906,607,14,0.3
3907,607,23,0.24
3908,608,31,0.18
3910,608,54,1.11
3911,609,55,1.04
3912,609,57,0.97
3913,610,95,0.9
3915,610,95,-1.16
3916,611,86,-1.22
3917,611,79,-1.28
3918,612,72,-1.34
3920,612,62,-0.42
3921,613,52,-0.5
3922,613,41,-0.58
3923,614,-15,-0.66
3925,614,-10,2.25
3926,615,-8,2.16
3927,615,1,2.07
3928,615,57,1.98
3930,615,62,2.87
3931,615,60,2.76
3932,615,47,2.65
3933,614,44,2.54
3935,614,19,2.46
3936,614,-2,2.38
3937,613,-15,2.3
3938,613,-64,2.22
3940,612,-58,2.16
3941,612,-48,2.1
3942,611,-29,2.04
3943,611,43,1.98
3945,611,37,0.92
3946,610,35,0.86
3947,610,23,0.8
3948,610,22,-1.24
3950,609,6,-1.27
3951,609,-48,-1.3
3952,609,-52,-1.33
3953,608,-39,-1.34
3955,607,-26,-1.35
3956,607,21,-1.36
3957,606,20,-1.38
3958,605,19,0.58
3960,605,18,0.54
3961,604,12,0.5
3962,603,-45,0.46
3963,602,-44,0.44
3965,602,-42,-3.54
3966,601,-32,-3.52
3967,600,-29,-3.5
3968,599,-28,-3.48
3970,598,-13,-3.45
3971,597,-8,-3.42
3972,596,3,-3.39
3973,595,56,-3.36
3975,594,37,-6.24
3976,593,37,-6.12
3977,592,20,-6
3978,591,15,-5.88
3980,590,-6,-2.81
3981,589,-11,-2.74
3982,588,-20,-2.67
3983,587,-80,-2.6
3985,586,-79,-2.56
3986,586,-68,-2.52
3987,585,-53,-2.48
3988,585,10,-2.44
3990,584,-3,-1.4
3991,584,-2,-1.36
3992,583,-8,-1.32
3993,582,-22,-1.28
3995,581,-34,0.75
3996,581,-38,0.78
3997,581,-44,0.81
3998,580,-113,0.84
4000,581,-105,3.85
4001,581,-93,3.86
4002,582,-89,3.87
4003,583,-39,3.88
4005,584,-26,3.83
4006,586,-23,3.78
4007,588,-10,3.73
4008,591,-57,3.68
4010,594,-43,4.64
4011,597,-10,4.6
4012,600,-3,4.56
4013,603,14,4.52
4015,607,18,2.5
4016,610,29,2.48
4017,614,34,2.46
4018,618,20,2.44
4020,621,22,2.42
4021,625,4,2.4
4022,628,2,2.38
4023,631,-2,2.36
4025,634,-5,3.31
4026,637,-1,3.26
4027,639,-1,3.21
4028,642,-1,3.16
4030,644,21,3.11
4031,646,30,3.06
4032,648,39,3.01
4033,650,38,2.96
4035,652,49,3.91
4036,654,40,3.86
4037,656,41,3.81
4038,659,36,3.76
4040,661,25,1.71
4041,664,25,1.66
4042,667,25,1.61
4043,669,22,1.56
4045,672,15,3.5
4046,676,14,3.44
4047,679,11,3.38
4048,682,50,3.32
4050,687,24,-0.67
4051,692,20,-0.66
4052,698,9,-0.65
4053,704,-3,-0.64
4055,711,-8,1.36
4056,718,-14,1.36
4057,725,-29,1.36
4058,732,-94,1.36
4060,739,-104,-0.62
4061,747,-93,-0.6
4062,754,-82,-0.58
4063,761,-45,-0.56
4065,769,-34,-1.53
4066,776,-31,-1.5
4067,783,-19,-1.47
4068,789,-6,-1.44
4070,795,4,-2.41
4071,801,13,-2.38
4072,807,23,-2.35
4073,812,-2,-2.34
4075,817,7,-1.34
4076,822,30,-1.34
4077,826,40,-1.34
4078,829,104,-1.34
4080,833,90,-2.33
4081,836,77,-2.32
4082,839,73,-2.31
4083,841,59,-2.28
4085,844,48,1.71
4086,846,38,1.7
4087,847,23,1.69
4088,848,-18,1.68
4090,849,-21,-0.35
4091,850,-15,-0.38
4092,850,-9,-0.41
4093,850,44,-0.44
4095,850,30,-3.44
4096,850,15,-3.44
4097,849,11,-3.44
4098,848,6,-1.46
4100,848,-10,-1.51
4101,847,-46,-1.56
4102,846,-58,-2.6
4103,846,-54,-2.64
4105,845,-42,-2.65
4106,844,-2,-2.66
4107,844,11,-2.67
4108,843,16,-5.65
4110,843,16,-5.63
4111,843,14,-5.61
4112,843,10,-5.59
4113,843,2,-5.57
4115,844,-6,-9.5
4116,844,-9,-9.43
4117,844,-15,-9.36
4118,844,-69,-9.29
4120,844,-74,-12.17
4121,845,-63,-12.05
4122,845,-39,-11.93
4123,845,31,-11.81
4125,846,23,-12.65
4126,847,24,-12.49
4127,848,26,-12.33
4128,849,-36,-12.17
4130,851,-36,-17.95
4131,853,-28,-17.73
4132,856,-25,-17.51
4133,858,-5,-17.29
4135,862,5,-18.05
4136,866,23,-17.81
4137,870,31,-17.57
4138,874,24,-17.33
4140,879,24,-20.08
4141,883,38,-19.83
4142,887,37,-19.58
4143,891,83,-19.33
4145,895,108,-21.06
4146,899,91,-20.79
4147,903,70,-20.52
4148,906,51,-20.25
4150,909,30,-21.95
4151,912,21,-21.65
4152,915,5,-21.35
4153,917,-24,-21.05
4155,919,-32,-23.72
4156,921,-44,-23.39
4157,924,-33,-23.06
4158,926,-40,-22.73
4160,928,-33,-21.4
4161,930,-28,-21.07
4162,933,-9,-20.74
4163,934,3,-20.41
4165,936,4,-20.1
4166,938,4,-19.79
4167,939,13,-19.48
4168,940,1,-19.17
4170,941,60,-19.83
4171,942,63,-19.49
4172,942,39,-19.15
4173,942,18,-18.81
4175,942,8,-20.49
4176,941,-23,-20.17
4177,940,-33,-19.85
4178,939,-81,-19.53
4180,938,-102,-17.21
4181,937,-99,-16.89
4182,935,-98,-16.57
4183,933,-33,-16.25
4185,931,-35,-17.93
4186,929,-35,-17.61
4187,927,-28,-17.29
4188,925,-22,-16.97
4190,923,-21,-16.66
4191,921,-12,-16.35
4192,919,-4,-16.04
4193,917,-49,-15.73
4195,915,-39,-15.43
4196,913,-23,-15.13
4197,911,-15,-14.83
4198,909,47,-14.53
4200,908,33,-12.24
4201,905,24,-11.95
4202,903,47,-11.66
4203,901,52,-13.35
4205,899,40,-13.05
4206,897,-17,-12.75
4207,896,-16,-14.43
4208,894,-6,-14.11
4210,892,10,-13.75
4211,890,57,-13.39
4212,889,50,-13.03
4213,888,47,-6.73
4215,888,43,-6.45
4216,888,0,-6.17
4217,889,-13,-5.89
4218,890,-13,-5.61
4220,891,9,-7.34
4221,892,14,-7.07
4222,894,24,-6.8
4223,894,33,-6.51
4225,893,47,-13.15
4226,889,49,-12.79
4227,883,48,-12.44
4228,876,96,-12.09
4230,868,72,-14.71
4231,860,56,-14.33
4232,852,45,-13.95
4233,844,21,-13.6
4235,843,5,-11.27
4236,848,3,-10.94
4237,859,-5,-10.61
4238,874,-62,-10.28
4240,899,-68,-12.96
4241,933,-52,-12.64
4242,973,-46,-12.32
4243,1018,13,-12
4245,1074,2,-12.7
4246,1140,-5,-12.4
4247,1213,-12,-12.1
4248,1290,-16,-11.8
4250,1376,-20,-14.48
4251,1468,-31,-14.16
4252,1565,-25,-13.84
4253,1663,-41,-13.52
4255,1763,-35,-16.23
4256,1862,-14,-15.94
4257,1959,-11,-15.65
4258,2054,-3,-15.36
4260,2139,5,-14.09
4261,2214,8,-13.82
4262,2281,75,-13.55
4263,2339,24,-13.28
4265,2382,4,-13.04
4266,2410,13,-12.8
4267,2426,14,-12.56
4268,2431,27,-12.32
4270,2421,34,-14.08
4271,2400,40,-13.84
4272,2367,55,-13.6
4273,2327,53,-13.36
4275,2278,66,-15.12
4276,2223,49,-14.88
4277,2162,47,-14.64
4278,2099,43,-14.4
4280,2030,33,-12.21
4281,1958,25,-12.02
4282,1884,11,-11.83
4283,1809,-4,-11.64
4285,1732,-8,-12.43
4286,1655,-13,-12.22
4287,1579,-21,-12.01
4288,1504,-31,-11.8
4290,1429,-25,-11.59
4291,1357,-26,-11.38
4292,1287,25,-11.17
4293,1219,16,-10.96
4295,1154,17,-7.79
4296,1091,4,-7.62
4297,1032,4,-7.45
4298,976,-54,-7.28
4300,923,-67,-9.11
4301,872,-69,-8.94
4302,826,-55,-8.77
4303,782,-7,-8.6
4305,741,-21,-10.39
4306,704,-31,-10.18
4307,669,-33,-9.97
4308,638,-47,-9.76
4310,609,-50,-6.6
4311,583,-58,-6.44
4312,559,-82,-6.28
4313,538,-121,-6.12
4315,519,-144,-5.96
4316,502,-148,-5.8
4317,487,-137,-5.64
4318,474,-92,-5.48
4320,463,-75,-7.3
4321,454,-64,-7.12
4322,446,-49,-6.94
4323,439,-36,-4.78
4325,434,-26,-4.6
4326,430,-34,-4.42
4327,427,-35,-8.2
4328,425,4,-8
4330,423,13,-7.8
4331,422,29,-7.6
4332,422,107,-7.42
4333,422,105,-10.21
4335,423,111,-10
4336,424,103,-9.79
4337,426,114,-9.58
4338,428,74,-9.31
4340,430,75,-11.02
4341,432,75,-10.73
4342,434,70,-10.44
4343,436,68,-10.15
4345,438,62,-9.88
4346,440,48,-9.61
4347,443,36,-9.34
4348,445,83,-9.07
4350,447,67,-7.88
4351,449,68,-7.69
4352,451,53,-7.5
4353,453,52,-7.31
4355,455,47,-12.1
4356,457,42,-11.89
4357,458,36,-11.68
4358,460,-10,-11.47
4360,461,-4,-15.2
4361,463,8,-14.93
4362,464,22,-14.66
4363,465,84,-14.39
4365,466,74,-18.11
4366,467,62,-17.83
4367,467,55,-17.55
4368,468,35,-17.27
4370,469,20,-17
4371,469,-9,-16.73
4372,469,-31,-16.46
4373,469,-89,-16.19
4375,469,-91,-16.94
4376,469,-77,-16.69
4377,469,-66,-16.44
4378,469,-6,-16.19
4380,469,-5,-15.97
4381,469,-6,-15.75
4382,469,-6,-15.53
4383,469,-10,-15.31
4385,469,-78,-17.06
4386,469,-69,-16.81
4387,469,-65,-16.56
4388,469,-62,-16.31
4390,470,-56,-16.06
4391,470,-48,-15.81
4392,470,-37,-15.56
4393,470,-31,-15.31
4395,470,-35,-14.09
4396,470,-50,-13.87
4397,469,-43,-13.65
4398,469,-50,-13.43
4400,469,-57,-13.23
4401,469,-54,-13.03
4402,469,-47,-12.83
4403,469,-37,-12.63
4405,468,-31,-7.46
4406,468,-29,-7.29
4407,468,-20,-7.12
4408,468,-17,-6.95
4410,468,-4,-8.77
4411,469,-9,-8.59
4412,469,-3,-8.41
4413,470,16,-8.23
4415,470,11,-4.09
4416,470,29,-3.95
4417,470,39,-3.81
4418,470,42,-3.67
4420,471,57,-3.5
4421,471,64,-3.33
4422,471,61,-3.16
4423,471,93,-2.99
4425,471,68,0.13
4426,471,62,0.25
4427,472,34,0.37
4428,472,20,0.49
4430,472,11,2.57
4431,472,-5,2.65
4432,473,-20,2.73
4433,473,-37,2.81
4435,473,-54,4.9
4436,473,-39,4.99
4437,473,-30,5.08
4438,473,15,5.17
4440,473,7,0.31
4441,473,-2,0.45
4442,473,-14,0.59
4443,473,-28,0.73
4445,472,-40,7.78
4446,472,-59,7.83
4447,472,-60,7.88
4448,472,-95,7.95
4450,471,-88,8.02
4451,471,-62,8.09
4452,470,-33,8.12
4453,469,39,8.15
4455,468,34,10.16
4456,467,56,10.17
4457,466,69,10.18
4458,464,68,13.13
4460,463,62,13.08
4461,462,11,13.03
4462,460,-8,11.99
4463,458,10,11.95
4465,457,-2,11.89
4466,455,40,11.83
4467,453,45,11.77
4468,451,37,10.72
4470,449,35,10.67
4471,447,27,10.62
4472,446,-21,10.57
4473,444,-26,10.52
4475,442,-13,15.43
4476,440,-2,15.34
4477,437,2,15.25
4478,435,8,15.16
4480,433,8,15.02
4481,431,20,14.88
4482,429,16,14.74
4483,427,53,14.6
4485,425,46,10.46
4486,422,34,10.32
4487,420,21,10.18
4488,418,10,10.04
4490,416,1,14.81
4491,413,1,14.58
4492,411,-6,14.35
4493,408,-38,14.12
4495,406,-41,11.91
4496,403,-32,11.7
4497,400,-19,11.49
4498,398,19,11.28
4500,395,18,13.04
4501,393,23,12.8
4502,390,26,12.56
4503,388,-21,12.32
4505,385,-22,11.09
4506,383,-16,10.86
4507,381,-18,10.63
4508,379,-17,10.4
4510,377,-18,12.13
4511,375,-20,11.86
4512,374,-27,11.59
4513,372,-35,11.32
4515,371,-47,7.09
4516,370,-49,6.86
4517,370,-51,6.63
4518,369,-60,6.4
4520,369,-60,12.12
4521,369,-58,11.84
4522,369,-56,11.56
4523,369,-65,11.28
4525,369,-41,11
4526,370,-39,10.72
4527,370,-12,10.44
4528,371,-13,10.16
4530,372,13,11.91
4531,373,16,11.66
4532,375,31,11.41
4533,376,26,11.16
4535,378,26,9.9
4536,381,22,9.64
4537,383,19,9.38
4538,386,10,9.12
4540,389,0,10.88
4541,392,-6,10.64
4542,396,-6,10.4
4543,400,30,10.16
4545,404,25,10.91
4546,409,17,10.66
4547,414,21,10.41
4548,420,23,10.16
4550,425,16,13.9
4551,431,5,13.64
4552,437,12,13.38
4553,443,-18,13.12
4555,449,-24,14.86
4556,455,-14,14.6
4557,462,-2,14.34
4558,469,60,14.08
4560,476,64,14.83
4561,483,67,14.58
4562,490,67,14.33
4563,498,65,14.08
4565,505,49,12.79
4566,513,41,12.5
4567,521,32,12.21
4568,529,-6,11.92
4570,537,-8,11.7
4571,545,-16,11.48
4572,554,-13,11.26
4573,562,4,11.04
4575,570,7,12.8
4576,578,-2,12.56
4577,586,-6,12.32
4578,594,11,14.06
4580,602,10,13.82
4581,610,-8,13.58
4582,618,-9,14.33
4583,625,-3,14.11
4585,633,1,13.89
4586,640,14,13.67
4587,648,25,13.44
4588,654,8,15.19
4590,660,0,14.94
4591,666,-16,14.69
4592,672,-113,14.44
4593,676,-97,14.18
4595,681,-88,11.94
4596,685,-84,11.7
4597,688,-69,11.46
4598,691,-70,11.22
4600,694,-73,14.99
4601,696,-63,14.76
4602,699,-40,14.53
4603,701,7,14.3
4605,703,-18,18.03
4606,704,17,17.76
4607,706,48,17.49
4608,707,42,17.22
4610,708,48,16.91
4611,709,45,16.6
4612,709,34,16.29
4613,710,-28,15.98
4615,710,-28,16.71
4616,710,-15,16.44
4617,710,-3,16.17
4618,709,34,15.9
4620,709,32,16.6
4621,708,-27,16.3
4622,708,39,16
4623,707,64,15.7
4625,706,84,16.41
4626,705,90,16.12
4627,704,79,15.83
4628,704,3,15.54
4630,703,12,16.23
4631,702,22,15.92
4632,701,37,15.61
4633,700,42,15.3
4635,699,57,11.05
4636,698,130,10.8
4637,697,115,10.55
4638,696,82,10.3
4640,696,-22,15.95
4641,695,-38,15.6
4642,694,-43,15.25
4643,693,-50,14.9
4645,692,-49,12.63
4646,691,-24,12.36
4647,690,-13,12.09
4648,689,-1,11.82
4650,689,13,10.56
4651,688,9,10.3
4652,687,21,10.04
4653,687,20,9.78
4655,686,22,10.53
4656,685,23,10.28
4657,685,37,10.03
4658,684,30,9.78
4660,683,27,5.56
4661,683,38,5.34
4662,682,41,5.12
4663,682,33,4.9
4665,681,37,7.67
4666,681,22,7.44
4667,680,13,7.21
4668,680,7,6.98
4670,679,-3,6.76
4671,679,-7,6.54
4672,678,-11,6.32
4673,678,-22,6.1
4675,677,-40,3.94
4676,676,-48,3.78
4677,676,-53,3.62
4678,675,4,3.46
4680,675,-7,2.33
4681,675,-19,2.2
4682,675,-15,2.07
4683,674,-15,1.94
4685,674,-16,1.82
4686,674,-17,1.7
4687,674,-24,1.58
4688,673,-48,1.46
4690,673,-44,3.31
4691,672,-47,3.16
4692,671,-38,3.01
4693,671,7,2.86
4695,670,-1,6.67
4696,669,4,6.48
4697,669,7,6.29
4698,668,8,6.1
4700,667,5,8.9
4701,667,-2,8.7
4702,666,-5,8.5
4703,665,-51,8.32
4705,665,-30,12.1
4706,664,-13,11.88
4707,664,9,11.67
4708,664,56,11.46
4710,664,61,10.26
4711,664,72,10.06
4712,663,85,9.86
4713,663,96,11.66
4715,664,97,11.46
4716,664,51,11.26
4717,665,39,15.02
4718,665,46,14.78
4720,666,33,14.52
4721,668,87,14.26
4722,669,81,14
4723,670,63,11.76
4725,672,60,11.56
4726,673,42,11.36
4727,675,30,11.16
4728,677,19,10.96
4730,678,10,12.78
4731,680,-35,12.6
4732,681,-21,12.42
4733,682,-12,12.24
4735,683,-11,13.05
4736,684,-18,12.86
4737,685,-25,12.67
4738,686,22,12.48
4740,687,18,12.3
4741,688,13,12.12
4742,689,-5,11.94
4743,690,-33,11.76
4745,692,-41,10.6
4746,693,-55,10.44
4747,694,-57,10.28
4748,695,-117,10.12
4750,697,-127,9.97
4751,698,-110,9.82
4752,699,-94,9.67
4753,700,-41,9.52
4755,700,-71,9.38
4756,701,-18,9.24
4757,701,-20,9.1
4758,702,-15,8.96
4760,702,-59,6.8
4761,703,-51,6.64
4762,704,-37,6.48
4763,704,-32,6.32
4765,705,-20,6.22
4766,706,-25,6.12
4767,706,-19,6.02
4768,707,-27,5.92
4770,707,-26,3.82
4771,707,-22,3.72
4772,707,-25,3.62
4773,707,-23,3.52
4775,706,-18,5.39
4776,706,-14,5.26
4777,706,-9,5.13
4778,705,0,5
4780,705,6,-0.07
4781,704,5,-0.14
4782,703,8,-0.21
4783,702,9,-0.28
4785,700,16,0.6
4786,699,13,0.48
4787,697,2,0.36
4788,696,8,0.24
4790,694,4,0.15
4791,692,11,0.06
4792,690,17,-0.03
4793,687,7,-0.12
4795,685,23,-1.2
4796,682,20,-1.28
4797,680,18,-1.36
4798,677,59,-1.44
4800,675,54,1.43
4801,672,44,1.3
4802,670,42,1.17
4803,667,40,1.04
4805,665,46,1.89
4806,663,45,1.74
4807,660,45,1.59
4808,658,2,1.44
4810,656,11,-1.68
4811,653,18,-1.8
4812,651,25,-1.92
4813,648,91,-2.04
4815,645,74,-1.15
4816,643,69,-1.26
4817,640,60,-1.37
4818,637,63,-1.48
4820,635,48,0.43
4821,632,42,0.34
4822,629,27,0.25
4823,627,-26,0.16
4825,624,-23,4.06
4826,622,-8,3.96
4827,620,12,3.86
4828,618,71,3.76
4830,616,68,-0.26
4831,614,55,-0.28
4832,612,45,-0.3
4833,610,27,2.65
4835,608,7,2.59
4836,607,-80,2.53
4837,605,-106,2.47
4838,604,-101,2.43
4840,603,-107,2.39
4841,602,-90,2.35
4842,601,-73,2.35
4843,601,-82,1.36
4845,601,-73,1.37
4846,601,-69,1.38
4847,601,-147,1.39
4848,602,-130,1.38
4850,603,-112,3.35
4851,605,-88,3.32
4852,606,-82,3.29
4853,608,-69,3.26
4855,610,-45,0.28
4856,613,-32,0.3
4857,615,-29,0.32
4858,619,18,0.34
4860,622,6,4.33
4861,626,-1,4.32
4862,629,-15,4.31
4863,633,-20,4.3
4865,637,-27,5.28
4866,640,-28,5.26
4867,644,-22,5.24
4868,647,-48,5.22
4870,650,-47,4.2
4871,653,-28,4.18
4872,655,-10,4.16
4873,657,69,4.14
4875,659,63,4.12
4876,661,64,4.1
4877,662,63,4.08
4878,664,2,4.06
4880,665,10,4.04
4881,666,0,4.02
4882,667,10,4
4883,668,16,3.98
4885,668,16,4.93
4886,669,28,4.88
4887,670,39,4.83
4888,671,47,4.78
4890,671,45,3.74
4891,672,60,3.7
4892,672,63,3.66
4893,673,54,3.62
4895,673,45,6.53
4896,673,43,6.44
4897,673,40,6.35
4898,673,33,6.26
4900,673,32,7.18
4901,672,21,7.1
4902,671,32,7.02
4903,670,24,6.94
4905,669,26,6.81
4906,668,23,6.68
4907,667,15,6.55
4908,666,0,6.42
4910,665,-1,7.29
4911,663,-7,7.16
4912,662,2,7.03
4913,661,3,6.9
4915,660,8,5.78
4916,659,19,5.66
4917,658,33,5.54
4918,657,88,5.42
4920,656,89,10.24
4921,655,79,10.06
4922,655,69,9.88
4923,654,66,9.7
4925,653,44,6.58
4926,653,35,6.46
4927,653,14,6.34
4928,652,-56,6.22
4930,652,-55,5.12
4931,652,-54,5.02
4932,651,-47,4.92
4933,651,1,4.82
4935,651,-7,3.7
4936,651,-8,3.58
4937,651,-17,3.46
4938,651,-30,3.34
4940,651,-43,0.26
4941,651,-59,0.18
4942,651,-67,0.1
4943,651,-90,0.02
4945,651,-94,-3.01
4946,652,-85,-3.04
4947,652,-84,-3.07
4948,652,-13,-3.1
4950,652,-16,-2.1
4951,653,-26,-2.1
4952,653,-37,-2.1
4953,653,-38,-4.08
4955,653,-41,-4.1
4956,653,-74,-4.12
4957,653,-90,-7.11
4958,653,-59,-7.07
4960,653,-45,-7.03
4961,653,11,-6.99
4962,653,36,-6.95
4963,653,43,-8.89
4965,653,39,-8.83
4966,653,52,-8.77
4967,653,40,-8.71
4968,653,29,-8.66
4970,653,25,-8.61
4971,653,23,-8.56
4972,653,28,-8.51
4973,653,-11,-8.46
4975,652,-31,-10.37
4976,652,-31,-10.28
4977,652,-24,-10.19
4978,652,23,-10.1
4980,651,6,-9.05
4981,651,-1,-9
4982,650,-7,-8.95
4983,650,-12,-8.9
4985,650,-19,-8.81
4986,649,-8,-8.72
4987,649,-18,-8.63
4988,649,-41,-8.54
4990,648,-36,-11.41
4991,647,-24,-11.28
4992,647,-14,-11.15
4993,646,33,-11.02
4995,645,38,-8.92
4996,644,42,-8.82
4997,643,40,-8.72
4998,642,43,-8.62
5000,642,46,-11.49
5001,641,56,-11.36
5002,640,57,-11.23
5003,640,5,-11.1
5005,639,31,-8.99
5006,639,41,-8.88
5007,638,49,-8.77
5008,638,55,-8.66
5010,637,56,-9.53
5011,637,83,-9.4
5012,636,79,-9.27
5013,635,72,-9.14
5015,635,65,-8.03
5016,634,57,-7.92
5017,633,51,-7.81
5018,633,50,-7.7
5020,632,39,-8.55
5021,631,28,-8.4
5022,631,26,-8.25
5023,630,9,-8.1
5025,629,3,-8.93
5026,629,-5,-8.76
5027,628,-23,-8.59
5028,628,-38,-8.42
5030,627,-45,-4.29
5031,626,-53,-4.16
5032,625,-53,-4.03
5033,625,-58,-3.9
5035,624,-60,-6.73
5036,623,-50,-6.56
5037,622,-40,-6.39
5038,621,26,-6.22
5040,620,26,-2.1
5041,620,23,-1.98
5042,619,14,-1.86
5043,618,12,-1.74
5045,618,4,-5.53
5046,618,-3,-5.32
5047,618,-12,-5.11
5048,618,-52,-4.9
5050,617,-58,-5.71
5051,617,-42,-5.52
5052,617,-31,-5.33
5053,616,18,-5.14
5055,616,12,-3.97
5056,615,-9,-3.8
5057,614,-19,-3.63
5058,613,-24,-3.46
5060,613,-36,2.64
5061,613,-49,2.74
5062,613,-60,2.84
5063,614,-100,2.94
5065,615,-99,1.03
5066,617,-79,1.12
5067,619,-69,1.21
5068,622,-20,1.3
5070,623,-37,3.34
5071,623,-40,3.38
5072,622,-34,3.42
5073,618,-24,5.44
5075,612,-7,5.47
5076,605,-51,5.5
5077,601,-33,4.54
5078,601,-30,4.56
5080,604,1,4.58
5081,609,41,4.6
5082,616,60,4.59
5083,632,51,6.56
5085,656,48,6.53
5086,685,43,6.5
5087,719,-1,6.47
5088,757,-7,6.42
5090,804,-12,4.39
5091,858,-10,4.36
5092,917,-10,4.33
5093,981,-13,4.3
5095,1054,-8,6.25
5096,1134,-8,6.2
5097,1219,9,6.15
5098,1307,67,6.1
5100,1401,61,6.03
5101,1498,71,5.96
5102,1597,81,5.89
5103,1697,79,5.82
5105,1792,65,9.72
5106,1882,70,9.62
5107,1966,72,9.52
5108,2045,14,9.42
5110,2110,31,3.38
5111,2161,44,3.34
5112,2200,63,3.3
5113,2228,117,3.26
5115,2240,111,5.17
5116,2238,111,5.08
5117,2225,111,4.99
5118,2201,95,4.9
5120,2166,70,4.83
5121,2121,48,4.76
5122,2069,29,4.69
5123,2011,-19,4.62
5125,1947,-25,3.53
5126,1879,-10,3.44
5127,1808,-4,3.35
5128,1735,26,3.26
5130,1660,-3,4.18
5131,1583,25,4.1
5132,1507,17,4.02
5133,1431,4,3.94
5135,1355,-70,5.83
5136,1280,-67,5.72
5137,1207,-79,5.61
5138,1137,-69,5.5
5140,1069,-65,6.39
5141,1003,-62,6.28
5142,941,-64,6.17
5143,881,-56,6.06
5145,825,-52,8.91
5146,772,-36,8.76
5147,722,-24,8.61
5148,675,-5,8.46
5150,632,-14,7.31
5151,591,-12,7.16
5152,554,-18,7.01
5153,520,-27,6.86
5155,488,-32,9.72
5156,459,-37,9.58
5157,434,-34,9.44
5158,410,-62,9.3
5160,390,-65,9.13
5161,371,-76,8.96
5162,355,-85,8.79
5163,341,-90,8.62
5165,329,-91,9.48
5166,319,-103,9.34
5167,310,-86,9.2
5168,303,-95,9.06
5170,297,-76,4.92
5171,292,-55,4.78
5172,289,-46,4.64
5173,286,8,4.5
5175,284,15,4.35
5176,284,7,4.2
5177,283,19,4.05
5178,284,12,3.9
5180,285,16,0.79
5181,286,5,0.68
5182,287,3,0.57
5183,289,-36,0.46
5185,291,-21,-4.54
5186,294,-8,-4.54
5187,296,1,-4.54
5188,299,65,-4.54
5190,302,73,-4.56
5191,304,58,-4.58
5192,307,55,-4.6
5193,310,43,-4.62
5195,312,27,-8.58
5196,314,11,-8.54
5197,316,2,-8.5
5198,318,-39,-8.44
5200,319,-18,-11.35
5201,320,15,-11.26
5202,321,20,-11.18
5203,322,108,-11.1
5205,323,116,-12.01
5206,324,114,-11.92
5207,324,130,-11.83
5208,325,138,-12.71
5210,324,132,-12.59
5211,324,72,-12.47
5212,324,45,-12.35
5213,323,54,-13.22
5215,323,41,-13.11
5216,322,52,-13
5217,322,112,-12.89
5218,322,94,-12.78
5220,321,91,-10.67
5221,321,70,-10.56
5222,321,51,-10.45
5223,322,-32,-10.34
5225,322,-12,-10.23
5226,322,-9,-7.15
5227,322,-11,-7.07
5228,322,2,-6.99
5230,323,17,-6.87
5231,323,28,-10.71
5232,323,29,-10.55
5233,324,78,-10.39
5235,325,55,-10.29
5236,326,53,-14.15
5237,327,38,-14.01
5238,328,30,-13.87
5240,329,19,-13.71
5241,331,-6,-13.55
5242,332,-19,-13.39
5243,335,-59,-13.23
5245,337,-68,-13.07
5246,339,-102,-10.93
5247,341,-83,-10.79
5248,344,-40,-10.65
5250,346,-48,-10.52
5251,348,-82,-11.38
5252,351,-141,-11.24
5253,353,-137,-11.1
5255,355,-114,-9.96
5256,357,-100,-9.82
5257,359,-88,-9.68
5258,361,-88,-9.54
5260,363,-59,-11.36
5261,365,-58,-11.18
5262,367,-46,-11
5263,369,-40,-10.82
5265,370,-27,-10.63
5266,372,-18,-10.44
5267,373,-6,-10.25
5268,374,-2,-10.06
5270,375,-2,-9.84
5271,376,0,-9.62
5272,376,0,-9.4
5273,376,6,-9.18
5275,376,-2,-8.97
5276,376,-6,-8.76
5277,376,1,-8.55
5278,376,-15,-8.34
5280,376,-21,-8.1
5281,376,-31,-5.88
5282,375,-28,-5.66
5283,375,-28,-5.44
5285,374,-18,-5.22
5286,374,-16,-6.98
5287,373,-7,-6.74
5288,372,-8,-6.5
5290,371,-3,-6.25
5291,371,1,-1.05
5292,370,0,-0.85
5293,370,61,-0.65
5295,369,45,-0.49
5296,369,54,1.65
5297,368,49,1.79
5298,368,66,1.93
5300,368,53,2.07
5301,367,55,3.2
5302,367,40,3.33
5303,367,15,3.46
5305,366,17,4.55
5306,366,18,4.64
5307,366,11,4.73
5308,366,69,4.82
5310,365,67,4.86
5311,365,49,6.88
5312,364,39,6.9
5313,363,18,6.92
5315,362,9,6.94
5316,361,-11,5.97
5317,360,-22,6
5318,359,-66,6.03
5320,358,-60,9.98
5321,356,-56,9.93
5322,355,-53,9.88
5323,354,-14,9.83
5325,353,-7,6.78
5326,352,-21,6.73
5327,351,-20,6.68
5328,350,-7,9.6
5330,349,-25,9.51
5331,348,-58,9.42
5332,346,-66,9.33
5333,345,-50,10.22
5335,343,-43,10.11
5336,342,-24,10
5337,340,4,9.89
5338,339,1,9.77
5340,337,-13,6.68
5341,336,-7,6.59
5342,334,-69,6.5
5343,333,-57,6.41
5345,331,-57,6.34
5346,330,-43,5.28
5347,329,-19,5.22
5348,327,1,5.16
5350,326,12,5.1
5351,325,33,4.08
5352,323,32,4.06
5353,322,81,4.04
5355,320,72,4.02
5356,319,64,5.94
5357,318,45,5.86
5358,316,35,5.78
5360,315,23,5.7
5361,314,12,5.58
5362,313,5,5.46
5363,312,-52,5.34
5365,312,-42,5.22
5366,311,-13,4.11
5367,311,-6,4
5368,310,67,3.89
5370,310,66,3.78
5371,310,66,2.7
5372,310,59,2.62
5373,310,49,2.54
5375,310,39,2.46
5376,310,31,2.37
5377,311,-18,2.28
5378,311,-8,2.19
5380,312,-7,2.11
5381,313,-2,1.04
5382,314,0,0.97
5383,316,1,0.9
5385,318,11,-0.18
5386,320,14,-0.26
5387,323,15,-0.34
5388,326,33,-0.42
5390,330,27,-0.5
5391,334,25,-0.58
5392,338,22,-0.66
5393,342,3,-0.74
5395,347,19,-0.82
5396,352,4,-3.87
5397,357,-2,-3.92
5398,363,-20,-3.97
5400,369,-23,-4.02
5401,375,-28,-2.09
5402,382,-24,-2.16
5403,389,-20,-2.23
5405,396,-16,-2.3
5406,404,-12,-1.36
5407,412,-7,-1.42
5408,421,-2,-1.48
5410,429,-1,-1.54
5411,438,0,-0.63
5412,447,3,-0.72
5413,456,37,-0.81
5415,464,31,-0.9
5416,474,-1,-2.92
5417,483,-8,-2.94
5418,492,-28,-2.96
5420,502,-37,-2.98
5421,511,-64,-2.98
5422,521,-67,-2.98
5423,530,-99,-2.98
5425,540,-90,-2.98
5426,549,-53,-1.98
5427,558,-24,-1.98
5428,568,72,-1.98
5430,576,75,-1.97
5431,585,73,-0.97
5432,593,70,-0.97
5433,601,54,-0.97
5435,609,35,-0.97
5436,617,-1,-0.95
5437,624,-18,-0.93
5438,631,-94,-0.91
5440,638,-95,-0.89
5441,645,-100,2.09
5442,651,-109,2.07
5443,657,-44,2.05
5445,663,-64,4.05
5446,668,-67,4.05
5447,674,-61,4.05
5448,679,-59,5.04
5450,683,-56,5
5451,687,-85,4.96
5452,691,-78,4.92
5453,695,-32,3.92
5455,699,-1,3.92
5456,702,41,3.92
5457,705,103,3.92
5458,708,101,7.89
5460,710,99,7.86
5461,712,84,7.83
5462,714,35,7.8
5463,716,38,7.77
5465,718,53,6.72
5466,719,37,6.67
5467,720,19,6.62
5468,721,-9,6.57
5470,722,-11,6.52
5471,723,37,6.46
5472,723,57,6.4
5473,724,120,6.34
5475,724,113,6.28
5476,724,79,7.2
5477,725,59,7.12
5478,725,15,7.04
5480,725,-2,6.96
5481,725,-15,-0.03
5482,725,-24,-0.02
5483,725,-83,-0.01
5485,725,-59,-0
5486,725,-49,0.01
5487,725,-30,0.02
5488,725,41,0.03
5490,725,43,0.04
5491,725,64,-3.92
5492,724,67,-3.88
5493,724,65,-3.84
5495,723,56,-3.8
5496,723,40,-5.75
5497,722,21,-5.7
5498,721,-31,-5.65
5500,720,-22,-5.6
5501,719,-20,-3.57
5502,718,-7,-3.54
5503,717,44,-3.51
5505,716,51,-8.43
5506,715,-13,-8.36
5507,714,49,-8.29
5508,712,-26,-8.22
5510,711,-17,-8.16
5511,710,-38,-8.1
5512,709,-18,-8.04
5513,707,8,-7.98
5515,706,26,-6.93
5516,705,34,-6.88
5517,703,52,-6.83
5518,702,52,-6.78
5520,700,54,-7.72
5521,699,46,-7.69
5522,698,50,-7.66
5523,698,49,-7.63
5525,697,52,-7.6
5526,696,44,-7.55
5527,696,13,-7.5
5528,695,0,-7.45
5530,694,-5,-7.4
5531,694,-14,-8.33
5532,693,-18,-8.26
5533,693,-38,-8.19
5535,692,-25,-8.12
5536,691,-22,-4.08
5537,691,-26,-4.04
5538,690,-22,-4
5540,689,-26,-3.96
5541,689,-18,-1.96
5542,688,-10,-1.96
5543,688,-6,-1.96
5545,687,4,-1.96
5546,687,6,-0.97
5547,687,1,-0.98
5548,686,59,-0.99
5550,686,49,-1
5551,686,29,-0.01
5552,686,18,-0.02
5553,686,6,-0.03
5555,686,1,-0.04
5556,686,-16,-2.02
5557,686,-22,-2
5558,686,-61,-1.98
5560,686,-60,-1.96
5561,687,-42,-4.91
5562,687,-10,-4.86
5563,688,53,-4.81
5565,688,49,-2.78
5566,689,46,-2.72
5567,690,36,-2.66
5568,691,22,-9.53
5570,691,-4,-9.38
5571,692,-77,-9.23
5572,692,-81,-9.08
5573,693,-78,-5.95
5575,693,-65,-5.82
5576,693,-35,-5.69
5577,693,14,-5.56
5578,693,7,-5.44
5580,693,-6,-9.28
5581,693,-11,-9.12
5582,693,-24,-8.96
5583,692,-35,-8.76
5585,692,-39,-8.56
5586,691,-46,-9.35
5587,691,-34,-9.14
5588,691,-87,-8.93
5590,691,-84,-8.73
5591,690,-61,-8.53
5592,690,-33,-8.33
5593,689,47,-8.13
5595,688,50,-7.93
5596,688,51,-9.71
5597,687,49,-9.49
5598,686,43,-9.27
5600,685,42,-9.05
5601,684,26,-8.82
5602,683,19,-8.59
5603,682,-17,-8.36
5605,681,-13,-8.13
5606,680,-11,-9.95
5607,679,-8,-9.77
5608,678,49,-9.59
5610,676,49,-9.41
5611,675,44,-9.23
5612,674,24,-9.05
5613,673,9,-8.87
5615,672,2,-8.69
5616,671,-25,-9.54
5617,670,-30,-9.39
5618,669,-67,-9.24
5620,668,-49,-9.09
5621,668,-49,-11.93
5622,668,-39,-11.77
5623,667,10,-11.61
5625,668,11,-11.45
5626,668,14,-12.26
5627,668,-49,-12.07
5628,668,-39,-11.88
5630,669,-41,-11.74
5631,669,-48,-12.59
5632,669,-65,-12.44
5633,669,-50,-12.29
5635,669,-42,-13.13
5636,669,-33,-12.97
5637,668,-30,-12.81
5638,668,-42,-12.65
5640,668,-44,-14.46
5641,667,-44,-14.27
5642,667,-38,-14.08
5643,666,-26,-13.89
5645,665,-17,-13.71
5646,664,5,-12.54
5647,664,10,-12.37
5648,663,33,-12.2
5650,662,33,-12.03
5651,661,35,-14.83
5652,660,39,-14.63
5653,659,38,-14.43
5655,657,41,-14.23
5656,656,53,-15.03
5657,654,35,-14.83
5658,653,41,-14.63
5660,651,36,-14.43
5661,649,35,-12.21
5662,648,36,-11.99
5663,646,37,-11.77
5665,644,32,-11.55
5666,642,39,-9.33
5667,639,29,-9.11
5668,637,81,-8.89
5670,635,75,-8.67
5671,633,70,-7.45
5672,630,65,-7.23
5673,628,64,-7.01
5675,625,48,-6.79
5676,623,43,-8.54
5677,621,38,-8.29
5678,618,-17,-8.04
5680,616,-33,-7.79
5681,614,-16,-7.56
5682,613,-14,-7.33
5683,611,38,-7.1
5685,609,24,-6.87
5686,607,-3,-7.66
5687,606,-16,-7.45
5688,605,-60,-7.24
5690,603,-66,-7.01
5691,602,-84,-5.79
5692,601,-82,-5.57
5693,600,-141,-5.42
5695,598,-119,-5.27
5696,597,-96,-4.13
5697,597,-70,-3.99
5698,596,-7,-3.82
5700,596,11,-3.65
5701,597,23,-3.48
5702,598,37,-3.31
5703,600,41,-5.12
5705,602,22,-4.97
5706,605,-28,-4.82
5707,607,-42,-4.67
5708,611,-32,-5.51
5710,614,-22,-5.35
5711,618,-6,-5.2
5712,621,47,-5.05
5713,625,37,-4.9
5715,629,33,-1.78
5716,633,36,-1.66
5717,636,-36,-1.54
5718,640,-42,-1.42
5720,643,-27,-1.3
5721,646,-22,-5.16
5722,649,-8,-5.02
5723,652,15,-4.88
5725,654,23,-4.74
5726,656,37,-7.57
5727,658,45,-7.4
5728,660,87,-7.23
5730,661,72,-7.06
5731,663,69,-5.92
5732,664,60,-5.78
5733,664,55,-5.64
5735,665,46,-5.5
5736,665,43,-5.36
5737,666,37,-5.22
5738,666,-15,-5.08
5740,667,-2,-4.94
5741,668,38,-7.78
5742,669,49,-7.62
5743,670,129,-7.46
5745,671,111,-7.3
5746,673,110,-9.15
5747,677,94,-9
5748,682,78,-8.85
5750,688,48,-8.7
5751,694,25,-3.61
5752,700,-51,-3.52
5753,707,-36,-3.43
5755,713,-49,-3.34
5756,720,-56,-5.24
5757,727,-58,-5.14
5758,733,-54,-5.04
5760,739,-49,-4.95
5761,746,-43,-8.82
5762,752,-57,-8.69
5763,758,-49,-8.56
5765,764,-58,-8.45
5766,769,-74,-5.37
5767,774,-72,-5.29
5768,779,-64,-5.21
5770,784,-50,-5.13
5771,788,-38,-4.05
5772,792,-25,-3.97
5773,795,-13,-3.89
5775,798,-5,-3.81
5776,800,-2,-3.76
5777,802,-1,-3.71
5778,804,1,-3.66
5780,806,1,-3.61
5781,807,-3,-2.58
5782,808,-4,-2.55
5783,809,-12,-2.52
5785,810,-13,-2.49
5786,811,-25,-4.42
5787,811,-22,-4.35
5788,812,13,-4.28
5790,812,8,-4.21
5791,812,-20,-8.08
5792,812,-23,-7.95
5793,812,-60,-7.82
5795,812,-57,-7.69
5796,811,-77,-8.54
5797,811,-73,-8.39
5798,810,-133,-8.24
5800,809,-124,-8.09
5801,808,-102,-6.97
5802,807,-77,-6.85
5803,806,-32,-6.73
5805,805,-17,-6.61
5806,804,-4,-7.48
5807,804,7,-7.35
5808,803,28,-7.22
5810,803,25,-7.09
5811,802,27,-7.96
5812,801,25,-7.83
5813,800,-17,-7.7
5815,799,-11,-7.57
5816,797,29,-8.42
5817,796,35,-8.27
5818,795,88,-8.12
5820,793,125,-9.95
5821,792,141,-9.77
5822,790,130,-9.59
5823,789,127,-15.35
5825,787,95,-15.11
5826,785,48,-14.87
5827,784,24,-14.63
5828,782,21,-15.4
5830,780,19,-15.17
5831,778,28,-14.94
5832,776,88,-14.71
5833,774,80,-14.49
5835,772,74,-17.24
5836,770,40,-16.99
5837,768,40,-16.74
5838,766,-27,-16.49
5840,765,-29,-16.21
5841,763,-29,-18.9
5842,761,-18,-18.59
5843,760,-9,-18.28
5845,759,-7,-17.97
5846,757,-16,-18.69
5847,756,-20,-18.41
5848,754,31,-18.13
5850,753,23,-17.85
5851,752,-7,-16.61
5852,750,-23,-16.37
5853,749,-37,-16.13
5855,748,-43,-15.89
5856,746,-52,-16.63
5857,745,-51,-16.37
5858,743,-90,-16.11
5860,742,-70,-15.85
5861,740,-71,-14.6
5862,738,-54,-14.35
5863,737,9,-14.1
5865,735,13,-13.85
5866,734,5,-14.62
5867,732,12,-14.39
5868,731,0,-14.16
5870,730,-6,-13.93
5871,728,-3,-13.72
5872,727,-2,-13.51
5873,725,-47,-13.3
5875,724,-30,-13.09
5876,722,4,-10.85
5877,721,26,-10.61
5878,720,81,-10.37
5880,719,40,-13.1
5881,717,106,-12.85
5882,716,89,-12.6
5883,715,30,-12.35
5885,714,21,-14.08
5886,713,3,-13.85
5887,712,-1,-13.62
5888,710,-14,-13.39
5890,709,-17,-11.18
5891,708,-25,-10.94
5892,706,-19,-10.7
5893,705,-19,-10.46
5895,703,-16,-10.22
5896,702,-16,-8.98
5897,701,-15,-8.74
5898,700,-13,-8.5
5900,698,-9,-8.26
5901,697,-11,-10
5902,696,-18,-9.74
5903,695,-16,-9.48
5905,694,-23,-9.22
5906,693,-33,-5.98
5907,691,-27,-5.74
5908,690,-47,-5.5
5910,689,-36,-5.26
5911,689,-26,-6.03
5912,688,-21,-5.8
5913,688,3,-5.57
5915,688,1,-5.34
5916,688,24,-4.16
5917,690,23,-3.98
5918,692,37,-3.8
5920,695,29,-3.62
5921,697,33,-5.43
5922,698,32,-5.24
5923,699,15,-5.05
5925,699,49,-4.86
5926,697,32,-2.68
5927,692,29,-2.5
5928,685,24,-2.32
5930,676,18,-2.14
5931,670,16,-5.93
5932,666,4,-5.72
5933,664,-33,-5.51
5935,663,-23,-5.3
5936,671,-20,-9.06
5937,686,-18,-8.82
5938,708,26,-8.58
5940,735,20,-8.34
5941,772,8,-13.06
5942,818,8,-12.78
5943,869,-8,-12.5
5945,925,-13,-12.24
5946,992,-19,-11.98
5947,1068,-16,-11.72
5948,1150,-81,-11.52
5950,1236,-61,-11.32
5951,1329,-52,-9.14
5952,1427,-32,-8.96
5953,1528,32,-8.79
5955,1628,30,-13.57
5956,1727,32,-13.35
5957,1822,42,-13.13
5958,1906,36,-11.92
5960,1979,40,-11.74
5961,2041,-1,-11.56
5962,2094,-1,-11.38
5963,2131,1,-13.18
5965,2153,-2,-12.98
5966,2164,30,-12.81
5967,2164,56,-12.64
5968,2155,54,-12.47
5970,2133,59,-13.29
5971,2102,53,-13.12
5972,2063,-18,-12.95
5973,2018,-16,-12.78
5975,1968,-14,-12.61
5976,1912,-7,-11.44
5977,1853,-1,-11.27
5978,1791,0,-11.1
5980,1728,8,-10.93
5981,1661,1,-10.77
5982,1593,-5,-10.61
5983,1524,43,-10.45
5985,1455,21,-10.29
5986,1385,-5,-10.12
5987,1316,-9,-9.95
5988,1248,-37,-9.78
5990,1182,-41,-9.61
5991,1117,-48,-9.45
5992,1054,-44,-9.29
5993,993,-85,-9.13
5995,935,-66,-8.97
5996,879,-53,-6.83
5997,825,-16,-6.69
5998,775,41,-6.55
6000,727,44,-6.41
6001,682,55,-3.28
6002,639,40,-3.15
6003,600,11,-3.02
6005,563,11,-4.9
6006,529,2,-4.78
6007,497,0,-4.66
6008,469,-9,-4.54
6010,442,-11,0.51
6011,419,-10,0.56
6012,397,-14,0.61
6013,378,-39,0.66
6015,361,-59,0.73
6016,347,-64,0.8
6017,334,-59,0.87
6018,322,-66,0.94
6020,313,-58,1.01
6021,305,-54,0.1
6022,298,-32,0.19
6023,293,-22,0.28
6025,289,-14,0.37
6026,285,-14,-1.54
6027,283,-5,-1.45
6028,282,-21,-1.36
6030,282,-13,-1.27
6031,282,-12,-4.12
6032,282,-12,-3.97
6033,283,-2,-3.82
6035,284,5,-3.67
6036,285,13,-9.47
6037,287,25,-9.27
6038,288,48,-9.07
6040,290,38,-8.87
6041,292,41,-12.62
6042,294,35,-12.37
6043,296,84,-12.12
6045,298,60,-11.87
6046,300,45,-15.6
6047,302,25,-15.33
6048,304,44,-15.06
6050,306,37,-14.79
6051,308,46,-16.48
6052,310,46,-16.17
6053,311,18,-15.86
6055,313,30,-15.55
6056,315,61,-17.26
6057,316,78,-16.97
6058,317,136,-16.68
6060,319,117,-16.39
6061,320,83,-19.11
6062,322,56,-18.83
6063,323,45,-18.55
6065,324,34,-18.27
6066,325,18,-21.01
6067,326,13,-20.75
6068,327,-46,-20.49
6070,328,-42,-20.23
6071,329,-40,-23.93
6072,329,-35,-23.63
6073,329,11,-23.33
6075,330,-4,-21.05
6076,330,-7,-20.75
6077,330,-17,-20.45
6078,330,-27,-20.15
6080,330,-27,-19.9
6081,330,-108,-19.65
6082,330,-92,-19.4
6083,330,-72,-17.16
6085,330,-54,-16.92
6086,330,0,-16.68
6087,330,16,-16.44
6088,330,15,-16.22
6090,330,13,-12.04
6091,330,15,-11.86
6092,330,-44,-11.68
6093,330,-41,-11.5
6095,330,-40,-11.33
6096,330,-32,-11.16
6097,330,-23,-10.99
6098,330,-16,-10.82
6100,330,-8,-10.65
6101,330,0,-5.52
6102,330,-3,-5.39
6103,330,31,-5.26
6105,330,20,-5.13
6106,330,-2,-7.97
6107,331,-6,-7.81
6108,331,-6,-7.65
6110,331,-11,-7.49
6111,331,-14,-3.37
6112,331,-22,-3.25
6113,332,-80,-3.13
6115,332,-68,-3.01
6116,332,-58,-2.89
6117,332,-48,-2.77
6118,332,9,-2.65
6120,332,15,-2.53
6121,332,-40,0.58
6122,332,38,0.69
6123,332,32,0.8
6125,332,26,0.91
6126,332,21,-0.93
6127,332,-1,-0.77
6128,332,-29,-0.61
6130,331,-9,0.52
6131,331,-3,0.65
6132,331,10,0.78
6133,330,19,0.91
6135,330,42,2.08
6136,330,44,2.25
6137,329,27,2.42
6138,329,37,2.59
6140,329,33,2.76
6141,328,32,2.93
6142,328,30,3.1
6143,328,-5,3.27
6145,328,-4,3.44
6146,328,-6,7.56
6147,328,-10,7.68
6148,328,-11,7.8
6150,327,-10,7.92
6151,327,-8,2.08
6152,326,-8,2.24
6153,325,0,2.4
6155,325,-3,2.56
6156,324,4,6.65
6157,323,2,6.74
6158,322,-1,6.83
6160,321,5,6.92
6161,319,-3,2.99
6162,318,-8,3.06
6163,317,15,3.13
6165,316,13,3.2
6166,315,1,3.23
6167,313,3,3.26
6168,311,1,3.29
6170,310,1,3.32
6171,308,-2,3.31
6172,306,-4,3.3
6173,303,-65,3.29
6175,301,-53,3.28
6176,298,-53,1.27
6177,295,-39,1.26
6178,292,13,1.25
6180,289,19,1.24
6181,286,20,1.21
6182,283,14,1.18
6183,280,16,1.15
6185,277,7,1.12
6186,274,7,-1.91
6187,271,-4,-1.94
6188,268,-65,-1.97
6190,265,-57,-2
6191,262,-50,0.91
6192,258,-44,0.82
6193,255,4,0.73
6195,252,-9,-4.31
6196,249,-6,-4.39
6197,245,-8,-4.47
6198,242,-14,-3.56
6200,239,-19,-3.63
6201,236,-68,-3.7
6202,233,-67,-3.77
6203,230,-39,-7.8
6205,227,-27,-7.83
6206,225,5,-7.86
6207,223,39,-7.89
6208,221,32,-7.9
6210,219,37,-6.92
6211,217,26,-6.94
6212,215,14,-6.96
6213,213,5,-6.98
6215,212,-2,-6.96
6216,210,-15,-7.93
6217,209,-5,-7.9
6218,208,-71,-7.87
6220,207,-56,-7.84
6221,206,-43,-10.78
6222,206,-36,-10.72
6223,206,34,-10.66
6225,207,40,-10.6
6226,208,41,-13.46
6227,209,38,-13.32
6228,211,36,-13.18
6230,212,24,-13.04
6231,214,-20,-10.95
6232,216,-13,-10.86
6233,219,-2,-10.77
6235,221,3,-10.68
6236,224,18,-11.54
6237,228,24,-11.4
6238,231,105,-11.26
6240,235,95,-11.12
6241,240,88,-11.97
6242,244,74,-11.82
6243,249,65,-11.67
6245,254,44,-11.52
6246,259,39,-11.34
6247,265,21,-11.16
6248,270,-12,-10.98
6250,276,-11,-10.8
6251,282,-3,-12.62
6252,288,13,-12.44
6253,294,62,-12.26
6255,300,-2,-7.12
6256,307,54,-6.98
6257,314,48,-6.84
6258,321,-24,-6.7
6260,328,-30,-6.55
6261,336,-25,-7.39
6262,343,-21,-7.23
6263,351,-18,-7.07
6265,359,-24,-6.91
6266,367,-21,-7.74
6267,375,-10,-7.57
6268,384,-20,-7.4
6270,392,-16,-7.23
6271,401,-24,-5.04
6272,409,-36,-4.85
6273,418,-45,-4.66
6275,426,-48,-4.47
6276,434,-14,-3.35
6277,443,3,-3.23
6278,451,32,-3.11
6280,459,36,-2.99
6281,467,61,-2.83
6282,475,68,-2.67
6283,483,74,-2.51
6285,491,59,-2.35
6286,499,29,-6.19
6287,506,-1,-6.03
6288,514,-34,-5.87
6290,521,-42,-5.71
6291,528,-52,-2.58
6292,534,-60,-2.45
6293,541,-76,-2.32
6295,547,-66,-2.19
6296,553,-63,-2.06
6297,558,-50,-1.93
6298,563,-14,-1.8
6300,568,-8,-1.67
6301,573,-8,1.41
6302,578,-10,1.49
6303,582,-15,1.57
6305,586,-7,1.65
6306,590,42,-0.25
6307,594,38,-0.15
6308,597,3,-0.05
6310,600,21,0.05
6311,603,29,-0.87
6312,606,38,-0.79
6313,608,45,-0.71
6315,610,32,-0.63
6316,612,8,0.47
6317,614,-11,0.57
6318,615,-43,0.67
6320,617,-53,0.72
6321,618,-46,0.77
6322,619,-25,0.82
6323,620,-63,0.88
6325,620,-43,0.94
6326,621,-43,1.99
6327,621,-40,2.04
6328,622,-34,2.05
6330,622,-47,3.05
6331,622,-53,3.05
6332,621,-66,3.05
6333,621,-74,4.04
6335,620,-65,4.04
6336,619,-105,4.04
6337,618,-81,4.04
6338,618,-59,8
6340,617,-23,7.96
6341,616,20,7.91
6342,615,50,7.86
6343,614,70,7.81
6345,614,87,5.78
6346,613,84,5.72
6347,612,19,5.66
6348,611,33,5.6
6350,610,35,5.54
6351,609,61,4.46
6352,608,65,4.38
6353,607,87,4.3
6355,605,95,4.22
6356,604,113,9.11
6357,603,89,9
6358,602,155,8.89
6360,601,126,8.78
6361,600,109,4.7
6362,599,79,4.62
6363,597,71,4.54
6365,596,53,4.46
6366,595,44,9.32
6367,594,35,9.18
6368,593,-13,9.04
6370,593,-9,8.9
6371,592,9,3.81
6372,591,14,3.72
6373,590,84,3.63
6375,590,69,3.54
6376,589,64,3.43
6377,589,34,3.32
6378,588,-3,3.21
6380,588,-3,4.14
6381,587,-8,4.07
6382,587,-4,4
6383,587,11,3.93
6385,587,22,1.88
6386,587,23,1.82
6387,587,26,1.76
6388,587,10,1.7
6390,586,-10,0.65
6391,586,2,0.59
6392,586,-2,0.53
6393,585,-21,0.47
6395,585,-31,0.41
6396,585,-42,-2.6
6397,584,-42,-2.61
6398,584,-47,-2.62
6400,583,-50,-2.63
6401,583,-65,-1.64
6402,583,-61,-1.65
6403,582,-97,-1.66
6405,582,-83,-1.67
6406,582,-90,-0.69
6407,582,-73,-0.71
6408,582,-64,-0.73
6410,581,-55,-0.75
6411,581,-49,-0.81
6412,581,-38,-0.87
6413,582,-28,-0.93
6415,582,-17,-0.99
6416,582,-16,-5.97
6417,582,-11,-5.95
6418,582,38,-5.93
6420,582,34,-5.91
6421,582,22,-7.87
6422,581,15,-7.83
6423,581,10,-7.79
6425,580,0,-7.75
6426,580,-8,-8.67
6427,580,-19,-8.59
6428,579,-75,-8.51
6430,579,-58,-8.43
6431,579,-48,-8.37
6432,579,-34,-8.31
6433,578,43,-8.25
6435,578,44,-8.19
6436,577,35,-7.15
6437,577,37,-7.11
6438,576,19,-7.07
6440,576,10,-7.03
6441,576,-1,-5.99
6442,575,-10,-5.95
6443,575,-67,-5.91
6445,575,-53,-5.87
6446,575,-24,-6.82
6447,575,-9,-6.77
6448,575,59,-6.72
6450,574,58,-6.67
6451,574,64,-6.61
6452,575,63,-6.55
6453,575,55,-6.49
6455,575,45,-6.42
6456,575,29,-11.3
6457,576,11,-11.18
6458,576,-23,-11.05
6460,577,-23,-10.92
6461,577,-21,-7.82
6462,577,-20,-7.72
6463,578,18,-7.58
6465,578,19,-7.44
6466,578,1,-9.28
6467,578,6,-9.12
6468,579,-4,-5.99
6470,579,-6,-5.88
6471,579,-38,-5.77
6472,579,-46,-5.66
6473,579,-16,-5.55
6475,578,-3,-5.44
6476,578,10,-5.34
6477,578,62,-5.24
6478,578,62,-5.14
6480,578,53,-4.05
6481,578,63,-3.91
6482,578,53,-3.77
6483,578,40,-3.63
6485,578,34,-3.49
6486,578,26,-1.41
6487,578,11,-1.33
6488,578,-47,-1.25
6490,578,-30,-1.17
6491,578,-6,-1.04
6492,578,15,-0.91
6493,578,75,-0.78
6495,578,73,-0.65
6496,578,84,0.42
6497,579,79,0.49
6498,579,77,0.56
6500,579,47,0.63
6501,579,-28,-0.29
6502,579,-42,-0.21
6503,579,-49,-0.13
6505,579,-52,-0.04
6506,579,-47,1.04
6507,579,-39,1.12
6508,579,-47,1.2
6510,579,-28,1.26
6511,579,-54,0.33
6512,578,-61,0.4
6513,577,-66,0.47
6515,575,-65,0.53
6516,574,-59,-0.4
6517,572,-53,-0.33
6518,571,-56,-0.26
6520,569,-43,-0.19
6521,568,-66,-1.14
6522,566,-56,-1.09
6523,564,-68,-1.04
6525,563,-55,-0.99
6526,561,-48,-0.93
6527,560,-36,-0.87
6528,558,-29,-0.81
6530,556,-23,-0.75
6531,555,-20,2.29
6532,553,-11,2.33
6533,551,-4,2.37
6535,549,-2,2.41
6536,548,-3,1.46
6537,546,5,1.51
6538,544,50,1.56
6540,542,41,1.61
6541,540,24,1.61
6542,539,17,1.61
6543,537,6,1.61
6545,536,5,1.61
6546,535,-8,2.58
6547,534,-8,2.55
6548,533,-53,2.52
6550,533,-56,2.49
6551,533,-43,2.45
6552,533,-37,2.41
6553,533,24,2.37
6555,534,24,2.33
6556,536,23,6.25
6557,537,32,6.17
6558,540,32,6.09
6560,542,25,6.01
6561,545,29,5.94
6562,548,36,5.87
6563,551,-9,5.8
6565,555,5,5.73
6566,559,27,5.67
6567,562,41,5.61
6568,566,89,5.55
6570,569,101,6.48
6571,573,114,6.4
6572,576,129,6.32
6573,578,127,5.25
6575,581,124,5.18
6576,583,56,5.11
6577,585,33,5.04
6578,587,31,2.99
6580,588,40,2.94
6581,589,34,2.84
6582,590,84,2.74
6583,591,70,2.64
6585,592,67,3.53
6586,593,29,3.45
6587,594,-7,3.37
6588,595,6,3.29
6590,596,-4,3.21
6591,596,-3,4.1
6592,597,-9,3.99
6593,598,-2,3.91
6595,599,-5,3.83
6596,600,-8,4.74
6597,601,-9,4.65
6598,601,25,4.56
6600,602,20,4.47
6601,602,10,4.38
6602,602,-15,4.29
6603,602,-39,4.2
6605,602,-45,4.12
6606,602,-74,7.01
6607,602,-81,6.9
6608,601,-162,6.79
6610,600,-138,6.68
6611,600,-123,9.56
6612,599,-108,9.44
6613,598,-60,9.32
6615,597,-56,9.2
6616,596,-71,11.06
6617,595,-64,10.92
6618,594,-85,10.78
6620,593,-76,10.64
6621,592,-102,15.46
6622,591,-95,15.28
6623,591,-131,15.1
6625,590,-110,14.92
6626,589,-88,16.71
6627,588,-68,16.5
6628,587,-12,16.29
6630,586,-16,16.08
6631,585,34,19.84
6632,584,32,19.6
6633,583,42,19.36
6635,582,4,19.12
6636,581,24,17.88
6637,580,33,17.64
6638,579,67,17.4
6640,579,74,17.16
6641,578,93,17.9
6642,577,90,17.64
6643,577,98,17.38
6645,576,93,17.12
6646,576,85,16.85
6647,576,62,16.58
6648,576,57,16.31
6650,576,37,16.04
6651,576,28,13.79
6652,576,17,13.54
6653,576,6,13.29
6655,576,4,13.04
6656,576,-9,11.83
6657,576,-13,11.62
6658,576,-26,11.41
6660,576,-18,11.2
6661,576,-14,8.01
6662,576,-14,7.82
6663,576,-19,7.63
6665,577,-11,7.44
6666,577,-7,3.29
6667,577,-4,3.14
6668,577,-12,2.99
6670,578,-15,2.84
6671,578,-12,-3.24
6672,578,-2,-3.32
6673,579,45,-3.4
6675,579,37,-3.48
6676,579,35,-4.55
6677,579,30,-4.62
6678,579,24,-4.69
6680,579,19,-4.76
6681,579,18,-7.76
6682,579,16,-7.76
6683,579,-20,-7.76
6685,579,-12,-7.76
6686,579,-6,-8.75
6687,579,-5,-8.74
6688,579,27,-8.73
6690,579,21,-8.72
6691,579,9,-8.71
6692,579,0,-8.7
6693,578,-6,-8.69
6695,578,-17,-8.67
6696,577,-24,-7.66
6697,577,-28,-7.65
6698,576,-95,-7.65
6700,576,-72,-7.65
6701,575,-48,-6.66
6702,575,-31,-6.67
6703,575,51,-6.7
6705,575,42,-6.73
6706,575,55,-8.74
6707,575,58,-8.75
6708,574,50,-5.79
6710,574,45,-5.82
6711,574,5,-5.85
6712,573,2,-5.88
6713,573,9,-7.89
6715,572,17,-7.9
6716,571,25,-7.9
6717,571,87,-7.9
6718,570,83,-7.9
6720,569,69,-3.94
6721,569,57,-3.97
6722,568,37,-4
6723,568,-7,-4.03
6725,567,-8,-4.06
6726,567,-2,-10.03
6727,567,7,-10
6728,566,13,-9.97
6730,566,12,-9.94
6731,565,8,-7.9
6732,565,10,-7.86
6733,564,42,-7.82
6735,564,27,-7.78
6736,563,2,-6.72
6737,562,-13,-6.66
6738,562,-25,-6.6
6740,562,-28,-6.54
6741,561,-59,-4.48
6742,561,-65,-4.42
6743,561,-105,-4.36
6745,560,-91,-4.3
6746,560,-68,-4.19
6747,560,-58,-4.08
6748,560,-11,-3.97
6750,560,5,-3.86
6751,559,8,-3.73
6752,559,2,-3.6
6753,559,-28,-3.47
6755,558,-19,-3.34
6756,558,-26,-4.16
6757,558,-15,-3.98
6758,557,-13,-3.8
6760,557,-6,-3.62
6761,557,11,-2.46
6762,557,25,-2.3
6763,558,22,-2.14
6765,558,27,-1.98
6766,560,26,-3.79
6767,562,23,-3.6
6768,565,23,-3.41
6770,569,16,-3.22
6771,572,16,-0.06
6772,575,12,0.1
6773,577,21,0.26
6775,579,11,0.42
6776,578,7,-1.42
6777,575,6,-1.26
6778,570,-8,-1.1
6780,563,-6,-0.94
6781,558,-17,0.2
6782,554,-21,0.34
6783,550,-22,0.48
6785,548,-26,0.62
6786,554,-28,-0.26
6787,567,-23,-0.14
6788,585,-33,-0.02
6790,609,-35,0.1
6791,642,-40,-0.81
6792,683,-34,-0.72
6793,730,22,-0.63
6795,782,17,-0.54
6796,845,0,-0.51
6797,917,-7,-0.48
6798,995,-19,-0.45
6800,1077,-26,-0.42
6801,1168,-29,-2.38
6802,1264,-33,-2.34
6803,1364,-72,-2.3
6805,1465,-44,-2.26
6806,1566,-23,-6.21
6807,1664,-8,-6.16
6808,1759,69,-6.11
6810,1851,73,-6.06
6811,1930,77,-1.07
6812,1998,72,-1.08
6813,2056,66,-1.09
6815,2104,70,-1.1
6816,2136,71,-6.06
6817,2154,54,-6.02
6818,2160,4,-5.98
6820,2156,0,-5.94
6821,2137,7,-6.88
6822,2108,19,-6.82
6823,2069,81,-6.76
6825,2023,74,-6.7
6826,1969,87,-2.67
6827,1910,92,-2.64
6828,1847,85,-2.61
6830,1777,72,-7.53
6831,1705,-10,-7.47
6832,1629,-30,-7.41
6833,1551,-33,-5.34
6835,1471,-38,-5.27
6836,1391,-48,-5.2
6837,1312,2,-5.13
6838,1235,-1,-5.08
6840,1160,0,-6.02
6841,1086,-8,-5.96
6842,1015,-60,-5.9
6843,948,-80,-5.84
6845,884,-76,-5.74
6846,824,-79,-5.64
6847,766,-66,-5.54
6848,713,-50,-5.44
6850,663,-34,-5.34
6851,615,-20,-2.33
6852,572,-13,-2.32
6853,531,6,-2.31
6855,493,-1,-2.3
6856,459,-15,-0.29
6857,427,-38,-0.28
6858,398,-60,-0.27
6860,372,-76,-0.26
6861,348,-86,-1.23
6862,327,-86,-1.2
6863,308,-151,-1.17
6865,292,-128,-1.14
6866,277,-105,-1.09
6867,265,-76,-1.04
6868,255,-37,-0.99
6870,246,-21,-0.94
6871,239,-13,4.06
6872,233,-4,4.06
6873,229,-2,4.06
6875,225,1,4.06
6876,223,-2,3.07
6877,221,-19,3.08
6878,220,-19,3.09
6880,220,-7,3.1
6881,220,7,0.13
6882,221,11,0.16
6883,222,23,0.19
6885,224,47,0.22
6886,226,92,1.25
6887,228,83,1.28
6888,230,97,1.31
6890,232,88,1.34
6891,235,94,-1.62
6892,237,84,-1.58
6893,239,77,-1.54
6895,241,51,-1.5
6896,243,47,1.54
6897,245,35,1.58
6898,247,40,1.62
6900,249,35,1.66
6901,250,53,-1.29
6902,252,49,-1.24
6903,253,85,-1.19
6905,254,74,-1.14
6906,256,86,-1.08
6907,257,72,-1.02
6908,258,66,-0.96
6910,259,52,-0.9
6911,260,45,-2.83
6912,261,37,-2.76
6913,262,95,-2.69
6915,263,73,-2.62
6916,264,63,-1.57
6917,265,49,-1.52
6918,266,49,-1.47
6920,267,37,-1.42
6921,268,33,-2.36
6922,269,21,-2.3
6923,270,-17,-2.24
6925,271,-12,-2.18
6926,272,-15,-4.12
6927,273,-20,-4.06
6928,274,2,-4
6930,274,2,-3.94
6931,275,-10,-3.92
6932,276,-3,-3.9
6933,276,-19,-3.88
6935,277,-27,-3.86
6936,278,-44,-6.76
6937,278,-53,-6.66
6938,279,-117,-6.56
6940,280,-97,-6.46
6941,281,-85,-6.41
6942,281,-71,-6.36
6943,282,-11,-6.31
6945,283,-17,-6.26
6946,285,-16,-4.24
6947,286,-23,-4.22
6948,287,-36,-4.2
6950,288,-58,-4.18
6951,289,-89,-4.12
6952,290,-87,-4.06
6953,291,-66,-3.01
6955,292,-63,-3.01
6956,293,-53,-3.01
6957,293,-7,-3.01
6958,294,-13,-2.99
6960,295,-20,0.99
6961,296,-33,0.97
6962,296,-64,0.95
6963,297,-86,0.93
6965,297,-69,0.9
6966,298,-72,-3.09
6967,298,-59,-3.08
6968,299,-30,-3.07
6970,299,-8,-3.06
6971,299,15,2.89
6972,300,22,2.84
6973,300,80,2.79
6975,301,85,2.74
6976,301,93,-0.25
6977,301,85,-0.24
6978,301,78,-0.23
6980,301,60,-0.22
6981,301,51,0.8
6982,301,38,0.82
6983,302,6,0.84
6985,302,-2,0.86
6986,302,0,-0.12
6987,302,-2,-0.1
6988,302,40,-0.08
6990,302,29,-0.06
6991,302,14,3.92
6992,302,13,3.9
6993,301,8,3.88
6995,301,4,3.86
6996,300,3,3.89
6997,300,3,3.92
6998,299,-30,3.95
7000,298,-23,3.98
7001,297,-13,1.03
7002,296,0,1.08
7003,295,76,1.13
7005,295,56,1.18
7006,294,-21,2.19
7007,294,50,2.2
7008,293,-26,2.21
7010,293,-28,2.22
7011,293,-27,3.23
7012,292,-29,3.24
7013,291,-22,3.25
7015,291,-16,3.26
7016,290,-20,0.27
7017,289,-9,0.28
7018,288,-10,0.29
7020,287,-8,0.3
7021,286,-14,-0.65
7022,285,-18,-0.6
7023,284,-40,-0.55
7025,283,-33,-0.5
7026,282,-50,-0.48
7027,281,-47,-0.46
7028,280,-54,-0.44
7030,279,-44,-0.42
7031,277,-36,-2.38
7032,276,-25,-2.34
7033,275,-35,-2.3
7035,273,-23,-2.26
7036,272,-33,2.71
7037,270,-25,2.68
7038,269,-39,2.65
7040,267,-48,2.62
7041,266,-40,2.6
7042,264,-37,2.58
7043,262,-33,2.56
7045,261,-31,2.54
7046,259,-15,1.52
7047,258,2,1.5
7048,256,64,1.48
7050,255,66,1.46
7051,253,73,1.42
7052,252,63,1.38
7053,251,69,1.34
7055,249,40,1.3
7056,249,33,1.26
7057,248,10,1.22
7058,248,-48,1.18
7060,247,-41,1.14
7061,248,-47,0.08
7062,248,-42,0.02
7063,249,11,-0.04
7065,250,14,-0.1
7066,252,16,0.83
7067,254,24,0.76
7068,256,23,0.69
7070,258,25,0.62
7071,261,23,-2.4
7072,263,16,-2.42
7073,266,-22,-2.44
7075,268,-13,-2.46
7076,271,-3,-3.47
7077,273,8,-3.48
7078,276,80,-3.48
7080,279,70,-3.48
7081,282,65,-5.46
7082,286,59,-5.44
7083,289,44,-5.42
7085,293,28,-8.33
7086,297,-27,-8.24
7087,302,-31,-8.15
7088,306,-14,-8.06
7090,311,-5,-7.97
7091,317,0,-7.92
7092,322,32,-7.87
7093,327,31,-7.82
7095,333,41,-10.74
7096,339,24,-10.6
7097,346,18,-10.46
7098,352,21,-10.32
7100,358,10,-10.18
7101,365,14,-9.08
7102,372,10,-8.98
7103,380,-24,-8.88
7105,387,-18,-8.78
7106,394,-15,-12.63
7107,402,-11,-12.48
7108,410,20,-12.33
7110,417,21,-12.18
7111,425,4,-13.03
7112,432,-6,-12.88
7113,440,-13,-12.73
7115,447,-15,-12.58
7116,454,-100,-9.42
7117,462,-96,-9.26
7118,469,-89,-9.1
7120,477,-73,-8.94
7121,484,-54,-9.77
7122,492,-30,-9.6
7123,499,26,-9.43
7125,507,43,-9.26
7126,514,41,-8.13
7127,522,34,-8
7128,529,26,-7.87
7130,537,43,-7.74
7131,544,60,-7.6
7132,552,54,-7.46
7133,559,84,-7.32
7135,565,82,-7.18
7136,572,78,-4.06
7137,579,71,-3.94
7138,585,25,-3.82
7140,591,11,-3.7
7141,597,-22,-6.58
7142,603,-44,-6.46
7143,608,-57,-6.34
7145,613,-56,-6.22
7146,618,-68,-5.12
7147,623,-60,-5.02
7148,628,-75,-4.92
7150,632,-74,-4.82
7151,636,-97,-3.73
7152,640,-108,-3.64
7153,644,-141,-3.55
7155,647,-121,-3.46
7156,650,-123,-4.38
7157,653,-94,-4.3
7158,656,-51,-4.22
7160,658,-23,-4.14
7161,661,7,-2.03
7162,663,24,-1.92
7163,665,24,-1.81
7165,666,15,-1.7
7166,668,11,-0.6
7167,669,15,-0.5
7168,670,91,-0.4
7170,671,75,-0.3
7171,672,68,-2.19
7172,672,54,-2.08
7173,672,59,-1.97
7175,672,61,-1.86
7176,672,92,2.21
7177,672,78,2.28
7178,671,1,2.35
7180,671,-1,2.42
7181,670,-5,0.51
7182,670,-6,0.6
7183,669,63,0.69
7185,668,60,0.78
7186,668,62,1.85
7187,667,56,1.92
7188,666,49,1.99
7190,666,35,2.06
7191,665,29,-1.82
7192,664,21,-1.7
7193,663,-16,-1.58
7195,662,-13,-1.46
7196,661,-5,3.58
7197,660,-1,3.62
7198,659,46,3.66
7200,659,53,3.7
7201,658,58,1.75
7202,657,47,1.8
7203,656,42,1.85
7205,655,25,-0.08
7206,654,-24,-0.03
7207,653,-35,0.02
7208,652,-17,4.03
7210,651,-14,4.01
7211,650,-2,3.99
7212,649,57,3.97
7213,648,56,3.95
7215,647,56,5.91
7216,646,47,5.87
7217,645,4,5.83
7218,644,2,5.79
7220,644,-2,5.72
7221,643,13,6.64
7222,642,22,6.56
7223,641,48,6.48
7225,640,47,6.4
7226,639,44,11.28
7227,638,29,11.16
7228,637,64,11.04
7230,636,37,10.92
7231,635,16,10.76
7232,634,-1,10.6
7233,633,-8,10.44
7235,632,-6,10.28
7236,631,-8,7.14
7237,630,0,7
7238,628,-55,6.86
7240,627,-48,6.72
7241,626,-45,2.65
7242,624,-43,2.58
7243,622,-4,2.51
7245,621,-15,2.44
7246,619,-40,1.37
7247,618,-52,1.3
7248,616,-76,1.23
7250,614,-76,1.16
7251,612,-81,1.1
7252,610,-84,1.04
7253,607,-113,0.98
7255,605,-82,0.92
7256,602,-74,1.85
7257,599,-49,1.78
7258,596,-44,1.71
7260,593,-17,1.64
7261,590,-15,-1.37
7262,587,-10,-1.38
7263,584,4,-1.39
7265,581,0,-1.4
7266,578,8,0.54
7267,575,14,0.48
7268,573,13,0.42
7270,570,20,0.36
7271,567,44,2.29
7272,565,42,2.22
7273,562,40,2.15
7275,560,33,2.08
7276,558,39,-0.95
7277,556,28,-0.98
7278,554,41,-1.01
7280,552,32,-1.04
7281,551,36,-1.08
7282,549,40,-1.12
7283,547,42,-1.16
7285,546,42,-1.2
7286,544,50,-3.2
7287,543,42,-3.2
7288,542,94,-3.2
7290,541,79,-3.2
7291,540,75,-1.21
7292,539,45,-1.22
7293,539,51,-1.23
7295,538,41,-1.24
7296,538,38,-0.28
7297,537,22,-0.32
7298,537,-42,-0.36
7300,536,-32,-0.4
7301,536,-18,-0.4
7302,536,-4,-0.4
7303,536,53,-0.4
7305,536,38,-0.4
7306,536,12,0.57
7307,536,-4,0.54
7308,536,-33,0.51
7310,537,-49,0.48
7311,537,-75,-2.51
7312,537,-95,-2.5
7313,538,-150,-2.49
7315,538,-133,-2.48
7316,538,-134,-1.52
7317,539,-112,-1.56
7318,539,-42,-1.6
7320,540,-17,-1.64
7321,540,18,-2.62
7322,541,4,-2.6
7323,542,-23,-2.58
7325,543,-41,-6.52
7326,543,-91,-6.48
7327,544,-87,-6.44
7328,545,-90,-8.38
7330,546,-72,-8.34
7331,546,-49,-8.3
7332,547,22,-8.26
7333,547,18,-8.18
7335,548,25,-7.11
7336,548,45,-7.04
7337,548,31,-6.97
7338,549,-9,-6.9
7340,549,-6,-6.81
7341,549,12,-5.73
7342,549,16,-5.65
7343,548,43,-5.57
7345,548,50,-5.49
7346,547,73,-5.4
7347,547,78,-5.31
7348,547,123,-5.22
7350,546,107,-5.13
7351,546,113,-5.98
7352,545,95,-5.83
7353,544,89,-5.68
7355,543,68,-5.53
7356,543,61,-3.4
7357,542,42,-3.27
7358,541,-12,-3.14
7360,540,-12,-3.01
7361,539,-18,0.06
7362,538,-15,0.13
7363,537,56,0.2
7365,536,40,0.27
7366,535,34,-1.68
7367,534,38,-1.63
7368,533,35,-1.58
7370,531,17,-1.53
7371,530,-3,-2.48
7372,528,-15,-2.43
7373,526,-97,-2.38
7375,525,-90,-2.33
7376,523,-111,-3.27
7377,521,-99,-3.21
7378,519,-67,-3.15
7380,517,-91,-3.09
7381,516,-62,-4.01
7382,514,-55,-3.93
7383,513,-76,-3.85
7385,511,-113,-3.77
7386,510,-111,-6.69
7387,509,-98,-6.61
7388,508,-94,-6.53
7390,507,-83,-6.45
7391,506,-63,-3.38
7392,505,-43,-3.31
7393,504,-36,-3.24
7395,503,-21,-3.17
7396,502,-14,-7.04
7397,501,-13,-6.91
7398,500,-7,-6.78
7400,499,-2,-6.65
7401,499,71,-3.58
7402,498,78,-3.51
7403,498,62,-3.44
7405,498,44,-3.37
7406,499,32,-4.29
7407,500,24,-4.21
7408,502,12,-4.13
7410,503,18,-4.05
7411,505,26,-7.95
7412,507,30,-7.85
7413,510,52,-7.75
7415,513,51,-7.65
7416,516,72,-6.54
7417,519,70,-6.43
7418,523,66,-6.32
7420,526,53,-6.21
7421,530,68,-5.1
7422,533,63,-4.99
7423,537,108,-4.88
7425,540,77,-4.77
7426,543,66,-7.63
7427,546,43,-7.49
7428,548,39,-7.35
7430,551,27,-7.21
7431,553,21,-2.11
7432,554,16,-2.01
7433,556,-52,-1.91
7435,557,-43,-1.81
7436,558,-36,2.22
7437,559,-29,2.25
7438,559,16,2.28
7440,560,14,2.31
7441,560,16,3.34
7442,561,19,3.37
7443,562,10,3.4
7445,562,6,3.43
7446,563,7,2.46
7447,563,6,2.49
7448,564,-33,2.52
7450,565,-23,2.51
7451,565,-3,-0.47
7452,565,12,-0.45
7453,565,68,-0.45
7455,565,63,-0.45
7456,565,48,3.51
7457,564,24,3.47
7458,564,-16,3.43
7460,563,-51,3.4
7461,562,-125,3.37
7462,561,-125,3.34
7463,561,-115,5.29
7465,560,-112,5.24
7466,560,-69,5.2
7467,559,-44,5.16
7468,559,-36,5.12
7470,558,-51,7.06
7471,558,-42,7
7472,557,-94,6.94
7473,557,-99,6.88
7475,557,-88,6.82
7476,556,-74,9.72
7477,556,-60,9.62
7478,555,-50,9.52
7480,555,-36,9.42
7481,555,-33,7.36
7482,554,-22,7.3
7483,554,56,7.24
7485,554,51,7.18
7486,554,48,9.13
7487,554,45,9.08
7488,554,38,9.03
7490,554,34,8.98
7491,554,24,7.92
7492,554,13,7.86
7493,553,-12,7.8
7495,553,-6,7.74
7496,553,11,10.64
7497,553,26,10.54
7498,553,102,10.44
7500,553,98,10.34
7501,554,92,10.23
7502,554,65,10.12
7503,554,35,10.01
7505,554,20,9.9
7506,554,7,9.78
7507,554,-2,9.66
7508,555,-6,9.54
7510,555,-13,9.42
7511,555,-6,8.28
7512,555,-7,8.14
7513,555,-20,8
7515,555,-15,7.86
7516,556,-11,4.78
7517,556,-9,4.7
7518,556,2,4.62
7520,556,-11,4.54
7521,556,-8,2.44
7522,556,-2,2.34
7523,556,6,2.24
7525,556,14,2.14
7526,556,12,-0.9
7527,556,21,-0.94
7528,556,19,-0.98
7530,556,20,-1.02
7531,556,17,0.91
7532,556,11,0.84
7533,555,13,0.77
7535,555,11,0.7
7536,555,14,-2.38
7537,554,19,-2.46
7538,554,28,-2.54
7540,554,25,-2.62
7541,553,39,-1.7
7542,553,34,-1.78
7543,553,89,-1.86
7545,553,66,-1.94
7546,553,66,-3.99
7547,553,39,-4.04
7548,553,26,-4.09
7550,553,17,-4.14
7551,553,17,-5.21
7552,552,5,-5.28
7553,552,-59,-5.35
7555,551,-40,-5.42
7556,550,-32,-5.44
7557,550,-18,-5.46
7558,549,35,-5.48
7560,549,39,-5.5
7561,549,32,-4.49
7562,548,27,-4.48
7563,548,7,-4.47
7565,548,-2,-4.46
7566,548,-25,-5.43
7567,547,-27,-5.4
7568,547,-100,-5.37
7570,547,-85,-5.34
7571,546,-70,-7.3
7572,546,-52,-7.26
7573,545,-21,-7.22
7575,545,-14,-7.18
7576,544,-14,-7.17
7577,544,-10,-7.16
7578,543,-24,-7.15
7580,542,-40,-3.18
7581,542,-98,-3.17
7582,541,-97,-3.16
7583,541,-83,-6.12
7585,540,-65,-6.08
7586,540,-42,-6.04
7587,540,0,-6
7588,540,4,-5.94
7590,540,14,-1.92
7591,539,8,-1.9
7592,539,-30,-1.88
7593,539,-47,-1.86
7595,539,-33,-1.82
7596,538,-35,0.2
7597,538,-22,0.22
7598,538,-26,0.24
7600,538,-24,0.26
7601,538,-21,-0.68
7602,537,-15,-0.62
7603,537,35,-0.56
7605,537,33,-0.5
7606,537,32,0.53
7607,536,33,0.56
7608,536,32,0.59
7610,536,28,0.62
7611,536,38,0.67
7612,536,21,0.72
7613,536,-18,0.77
7615,535,-8,0.82
7616,535,0,-0.13
7617,536,3,-0.08
7618,537,54,-0.03
7620,538,61,0.02
7621,540,67,-0.89
7622,543,45,-0.8
7623,546,50,-0.71
7625,550,35,-0.62
7626,552,30,-1.52
7627,552,6,-1.42
7628,552,-17,-1.32
7630,550,3,-1.22
7631,547,16,0.86
7632,541,24,0.94
7633,534,24,1.02
7635,526,31,1.1
7636,523,61,3.15
7637,523,60,3.2
7638,527,85,3.25
7640,533,73,3.3
7641,548,77,1.34
7642,571,52,1.38
7643,600,54,1.42
7645,634,37,1.46
7646,678,28,1.48
7647,731,14,1.5
7648,790,4,1.52
7650,854,-3,1.54
7651,928,-7,2.52
7652,1010,-13,2.5
7653,1098,-8,2.48
7655,1189,-10,2.46
7656,1285,-7,1.47
7657,1385,-11,1.48
7658,1487,-9,1.49
7660,1588,-5,1.5
7661,1685,0,2.47
7662,1776,12,2.44
7663,1862,66,2.41
7665,1942,68,2.38
7666,2007,56,5.33
7667,2058,55,5.28
7668,2098,55,5.23
7670,2126,42,5.18
7671,2139,31,3.13
7672,2138,-21,3.08
7673,2126,-29,3.03
7675,2104,-28,2.98
7676,2070,-32,2.92
7677,2027,-28,2.86
7678,1977,21,2.8
7680,1921,16,2.74
7681,1859,-11,5.65
7682,1793,-16,5.56
7683,1723,-38,5.47
7685,1652,-54,5.38
7686,1578,-64,5.3
7687,1503,-77,5.22
7688,1427,-134,5.14
7690,1352,-116,5.06
7691,1277,-110,2
7692,1203,-100,1.94
7693,1131,-41,1.88
7695,1061,-57,1.82
7696,992,-57,5.7
7697,927,-48,5.58
7698,864,-34,5.46
7700,803,-30,7.32
7701,746,-54,7.18
7702,691,-48,7.04
7703,640,-31,7.89
7705,591,-19,7.78
7706,546,21,7.67
7707,504,38,7.56
7708,465,25,7.42
7710,429,26,7.28
7711,396,22,7.14
7712,366,9,7
7713,339,10,6.86
7715,314,0,6.76
7716,293,-9,5.67
7717,273,-14,5.58
7718,256,-70,5.49
7720,242,-71,5.4
7721,229,-75,1.37
7722,218,-72,1.34
7723,209,-15,1.31
7725,202,-24,1.28
7726,196,-21,-1.73
7727,191,-11,-1.74
7728,187,-11,-1.75
7730,185,-35,-1.76
7731,183,-36,-2.75
7732,182,-27,-2.74
7733,181,-1,-2.73
7735,182,22,-2.72
7736,182,42,-8.65
7737,183,62,-8.58
7738,184,121,-8.51
7740,185,132,-8.44
7741,187,122,-6.4
7742,189,110,-6.36
7743,191,96,-6.32
7745,194,84,-6.28
7746,196,69,-8.23
7747,199,57,-8.18
7748,202,-10,-8.13
7750,204,-3,-8.08
7751,207,7,-8.04
7752,210,21,-8
7753,213,93,-7.96
7755,215,84,-7.92
7756,217,81,-10.83
7757,220,75,-10.74
7758,222,56,-10.65
7760,224,-22,-10.56
7761,226,-31,-12.43
7762,228,-33,-12.3
7763,230,-30,-12.17
7765,232,-27,-12.04
7766,233,-17,-13.91
7767,235,-10,-13.78
7768,237,0,-13.65
7770,238,7,-13.52
7771,239,6,-13.39
7772,241,5,-13.26
7773,242,2,-13.13
7775,242,-8,-13
7776,243,-11,-9.89
7777,244,-17,-9.78
7778,245,-21,-9.67
7780,246,-10,-9.56
7781,246,-10,-12.43
7782,247,0,-12.3
7783,248,1,-12.17
7785,249,7,-12.04
7786,251,-2,-8.93
7787,252,-4,-8.82
7788,255,-8,-8.71
7790,257,4,-8.6
7791,259,-2,-7.47
7792,262,0,-7.34
7793,265,6,-7.21
7795,268,12,-7.08
7796,272,4,-3.01
7797,275,18,-2.94
7798,278,67,-2.87
7800,282,53,-2.8
7801,285,37,-4.71
7802,289,23,-4.62
7803,292,5,-4.53
7805,295,-17,-4.44
7806,299,-26,-3.33
7807,302,-55,-3.22
7808,306,-115,-3.11
7810,309,-96,-3
7811,313,-82,-1.9
7812,316,-66,-1.8
7813,319,-29,-1.7
7815,322,-21,-1.6
7816,325,-8,0.45
7817,328,-2,0.5
7818,331,-12,0.55
7820,333,-20,0.6
7821,336,-38,-1.29
7822,339,-43,-1.18
7823,341,-84,-1.07
7825,344,-79,-0.94
7826,346,-63,1.17
7827,349,-40,1.28
7828,351,19,1.4
7830,353,13,1.52
7831,356,20,-0.34
7832,358,10,-0.2
7833,360,7,-0.06
7835,362,-7,0.08
7836,365,-55,0.22
7837,367,-59,0.36
7838,370,-71,3.47
7840,373,-40,3.58
7841,376,-34,3.68
7842,379,27,3.78
7843,382,32,3.88
7845,385,45,3.98
7846,387,-1,4.04
7847,390,-10,4.1
7848,393,-5,4.16
7850,395,0,4.22
7851,398,-8,3.26
7852,400,-3,3.3
7853,401,3,3.34
7855,403,15,3.38
7856,404,22,2.42
7857,405,22,2.46
7858,406,90,2.5
7860,407,76,2.54
7861,407,66,1.53
7862,408,58,1.52
7863,408,50,1.51
7865,407,40,1.5
7866,407,30,-1.46
7867,407,20,-1.42
7868,406,-16,-1.38
7870,406,7,-1.34
7871,405,11,0.66
7872,404,25,0.66
7873,403,103,0.66
7875,402,93,0.66
7876,401,98,-3.3
7877,400,97,-3.26
7878,399,33,-3.22
7880,397,26,-3.18
7881,396,11,-2.18
7882,395,5,-2.18
7883,394,9,-2.18
7885,392,-2,-2.18
7886,391,-8,-2.2
7887,390,-6,-2.22
7888,388,-13,-2.24
7890,387,-21,-2.26
7891,385,-25,1.66
7892,383,-46,1.58
7893,382,-53,1.5
7895,380,-61,1.42
7896,378,-68,-3.61
7897,376,-58,-3.64
7898,375,-52,-3.67
7900,373,-65,-3.7
7901,372,-72,-0.73
7902,370,-71,-0.76
7903,368,-64,-0.79
7905,367,-68,-0.82
7906,365,-39,-5.83
7907,363,-25,-5.84
7908,362,-18,-5.85
7910,360,-14,-5.86
7911,358,5,-1.88
7912,357,2,-1.9
7913,355,7,-1.92
7915,353,5,-1.94
7916,352,12,-5.91
7917,350,23,-5.88
7918,348,85,-5.85
7920,347,75,-5.82
7921,346,63,-1.79
7922,345,50,-1.76
7923,344,42,-1.73
7925,343,33,-1.7
7926,343,26,-3.67
7927,343,18,-3.64
7928,344,-28,-3.61
7930,345,-27,-3.58
7931,346,-23,-6.51
7932,347,-31,-6.44
7933,349,3,-6.37
7935,351,-4,-6.3
7936,353,-20,-2.26
7937,356,-37,-2.22
7938,358,-44,-2.18
7940,362,-42,-2.14
7941,365,-38,-5.05
7942,369,-43,-4.96
7943,373,-79,-4.87
7945,378,-63,-4.78
7946,383,-57,-7.68
7947,388,-49,-7.58
7948,393,-4,-7.48
7950,398,-2,-7.38
7951,404,2,-5.28
7952,410,8,-5.18
7953,417,10,-5.08
7955,424,11,-6.96
7956,431,-49,-6.86
7957,438,-21,-6.76
7958,445,-23,-5.67
7960,453,9,-5.58
7961,461,16,-5.49
7962,469,63,-5.4
7963,476,62,-5.28
7965,484,61,-2.19
7966,492,49,-2.1
7967,500,36,-2.01
7968,507,25,-1.92
7970,515,10,-1.83
7971,522,-6,-2.73
7972,530,1,-2.63
7973,537,-49,-2.53
7975,544,-40,-2.43
7976,551,-25,-3.33
7977,559,-28,-3.23
7978,566,49,-3.13
7980,573,58,-3.03
7981,580,84,-0.96
7982,587,87,-0.89
7983,594,94,-0.82
7985,601,99,-0.75
7986,607,105,-2.67
7987,614,95,-2.59
7988,620,22,-2.51
7990,626,-8,-2.43
7991,632,-27,-5.35
7992,637,-48,-5.27
7993,643,-20,-5.19
7995,648,-36,-5.11
7996,653,-40,-1.05
7997,657,-32,-0.99
7998,662,-31,-0.93
8000,666,-24,-0.87
8001,670,-19,-2.83
8002,673,-23,-2.79
8003,677,-73,-2.75
8005,680,-54,-2.71
8006,683,-46,-2.66
8007,686,-58,-2.61
8008,688,-54,-2.56
8010,691,4,-2.51
8011,693,38,2.49
8012,695,81,2.49
8013,697,22,2.49
8015,699,47,2.49
8016,700,52,2.53
8017,701,38,2.57
8018,703,20,2.61
8020,704,14,2.65
8021,705,9,1.65
8022,706,-2,1.65
8023,707,-26,1.65
8025,708,-17,1.65
8026,709,-6,1.68
8027,709,9,1.71
8028,710,26,1.74
8030,710,35,1.77
8031,710,43,-3.2
8032,710,26,-3.17
8033,710,12,-3.14
8035,710,-3,-3.11
8036,709,-16,-5.02
8037,708,-23,-4.93
8038,708,-30,-4.84
8040,707,-32,-4.75
8041,706,-42,-8.66
8042,704,11,-8.57
8043,703,11,-8.48
8045,702,1,-8.39
8046,701,-13,-11.23
8047,700,-25,-11.07
8048,699,-90,-10.91
8050,697,-87,-10.75
8051,696,-83,-12.59
8052,694,-79,-12.43
8053,693,-20,-12.27
8055,691,-18,-12.11
8056,689,-17,-13.96
8057,688,-16,-13.81
8058,686,-24,-13.66
8060,684,-26,-13.51
8061,682,-30,-12.33
8062,680,-38,-12.15
8063,678,-80,-11.97
8065,676,-61,-11.79
8066,674,-46,-11.64
8067,672,-25,-11.49
8068,670,46,-11.34
8070,669,49,-11.19
8071,667,65,-10.08
8072,665,79,-9.97
8073,663,96,-9.86
8075,661,120,-9.75
8076,659,57,-9.62
8077,657,69,-9.49
8078,655,76,-9.36
8080,653,60,-9.25
8081,651,58,-9.14
8082,649,119,-9.03
8083,647,120,-8.91
8085,645,111,-6.81
8086,643,104,-6.71
8087,642,43,-6.61
8088,640,41,-6.51
8090,639,29,-6.38
8091,638,32,-2.29
8092,636,47,-2.2
8093,635,58,-2.11
8095,634,71,-2.02
8096,633,70,-0.95
8097,632,61,-0.88
8098,631,117,-0.81
8100,629,101,-0.74
8101,628,83,2.29
8102,627,70,2.32
8103,626,45,2.35
8105,625,23,2.38
8106,624,-4,0.45
8107,623,-23,0.52
8108,622,-85,0.59
8110,621,-77,0.66
8111,620,-63,2.69
8112,619,-59,2.72
8113,618,-19,2.75
8115,617,-16,2.78
8116,616,-17,5.75
8117,615,-38,5.72
8118,615,-60,5.69
8120,614,-65,5.66
8121,613,-75,5.67
8122,613,-81,5.68
8123,612,-143,5.69
8125,612,-118,5.7
8126,612,-101,3.71
8127,611,-77,3.72
8128,611,-20,3.73
8130,611,-28,3.74
8131,611,-15,6.72
8132,611,-16,6.7
8133,610,-23,6.68
8135,610,-93,6.66
8136,610,-91,2.73
8137,610,-92,2.8
8138,610,-86,2.87
8140,609,-79,2.94
8141,609,-64,5.98
8142,608,-63,6.02
8143,608,-58,6.06
8145,607,-54,6.1
8146,607,-46,7.12
8147,606,-45,7.14
8148,605,-37,7.16
8150,603,-35,7.18
8151,602,-17,5.22
8152,601,-11,5.26
8153,600,-1,5.3
8155,599,9,5.34
8156,598,27,6.32
8157,597,41,6.3
8158,596,58,6.28
8160,595,63,6.26
8161,594,63,5.23
8162,593,57,5.2
8163,592,53,5.17
8165,592,59,5.14
8166,591,61,8.04
8167,590,66,7.94
8168,589,75,7.84
8170,589,74,7.74
8171,588,80,8.6
8172,587,74,8.46
8173,587,135,8.32
8175,586,134,8.18
8176,585,115,7.03
8177,585,105,6.88
8178,585,103,6.73
8180,584,90,6.58
8181,584,79,4.43
8182,584,52,4.28
8183,584,7,4.13
8185,584,13,3.98
8186,584,16,5.82
8187,584,14,5.66
8188,584,38,5.5
8190,584,41,5.34
8191,584,35,0.23
8192,584,18,0.12
8193,584,5,0.01
8195,584,-13,2.87
8196,584,-57,2.74
8197,584,-65,2.61
8198,584,-60,1.49
8200,583,-64,1.37
8201,583,-54,1.25
8202,583,-4,1.13
8203,582,-2,1.01
8205,582,-10,1.88
8206,581,-12,1.75
8207,581,-24,1.62
8208,581,-88,1.49
8210,580,-88,1.38
8211,580,-89,-0.71
8212,579,-86,-0.8
8213,578,-75,-0.89
8215,577,-56,-0.98
8216,575,-50,-2.02
8217,574,-30,-2.06
8218,572,13,-2.1
8220,570,7,-2.14
8221,568,2,-5.14
8222,566,-10,-5.14
8223,564,-16,-5.14
8225,563,-21,-5.14
8226,561,-31,-5.11
8227,559,-49,-5.08
8228,557,-115,-5.05
8230,555,-103,-5.02
8231,552,-94,-4.02
8232,550,-89,-4.02
8233,548,-32,-4.02
8235,545,-21,-4.02
8236,543,-10,-4
8237,540,1,-3.98
8238,538,10,-3.96
8240,535,7,-3.94
8241,533,8,-3.89
8242,531,14,-3.84
8243,529,-26,-3.79
8245,527,-5,-3.74
8246,525,4,-7.65
8247,523,7,-7.56
8248,521,59,-7.47
8250,519,43,-7.38
8251,518,27,-2.36
8252,516,21,-2.34
8253,514,-36,-2.32
8255,513,-35,-2.3
8256,512,-36,-3.24
8257,511,-45,-3.18
8258,511,-41,-3.12
8260,511,-38,-3.06
8261,511,-25,-7.99
8262,512,-23,-7.92
8263,513,-6,-7.85
8265,514,4,-7.78
8266,516,31,-3.72
8267,518,41,-3.66
8268,521,58,-3.6
8270,524,80,-3.54
8271,527,93,-5.45
8272,530,93,-5.36
8273,533,82,-5.27
8275,536,67,-5.18
8276,539,63,-4.12
8277,541,63,-4.06
8278,544,39,-4
8280,545,47,-3.94
8281,547,46,-3.87
8282,548,50,-3.8
8283,550,50,-3.73
8285,551,48,-3.66
8286,551,50,0.36
8287,552,49,0.38
8288,553,35,0.4
8290,553,18,0.42
8291,553,1,-1.51
8292,553,-11,-1.44
8293,553,20,-1.37
8295,553,-2,-1.3
8296,553,-22,2.74
8297,553,-45,2.78
8298,553,-55,2.82
8300,553,-59,2.86
8301,554,-58,-1.07
8302,554,-62,-1
8303,554,-89,-0.93
8305,555,-75,-0.86
8306,555,-47,5.13
8307,556,-37,5.12
8308,557,11,5.11
8310,557,15,5.1
8311,557,18,5.11
8312,557,13,5.12
8313,557,7,5.13
8315,556,-8,5.14
8316,555,-21,5.1
8317,555,-32,5.06
8318,554,-98,5.02
8320,553,-84,5.01
8321,552,-74,10.94
8322,551,-59,10.87
8323,550,5,10.79
8325,549,11,10.71
8326,547,48,11.62
8327,546,85,11.53
8328,545,92,11.44
8330,544,128,10.37
8331,544,81,10.3
8332,543,100,10.23
8333,543,118,10.16
8335,543,130,10.09
8336,543,124,10
8337,544,164,9.91
8338,544,149,9.82
8340,544,159,4.78
8341,545,126,4.73
8342,546,40,4.68
8343,546,24,4.63
8345,547,-2,4.58
