0,459,21,-32.14
1,511,19,-31.53
2,569,25,-30.92
3,638,10,-29.33
5,718,1,-28.74
6,804,5,-28.15
7,896,-4,-27.56
8,994,-22,-28.01
10,1095,-39,-27.46
11,1199,-30,-26.91
12,1303,-18,-26.36
13,1402,31,-28.8
15,1496,24,-28.24
16,1585,25,-27.68
17,1667,19,-27.12
18,1736,16,-26.54
20,1792,15,-25.96
21,1837,14,-25.38
22,1872,3,-24.8
23,1892,-12,-27.23
25,1898,-29,-26.66
26,1893,-20,-26.09
27,1878,-16,-25.52
28,1852,30,-21.97
30,1815,28,-21.42
31,1771,23,-20.87
32,1720,20,-20.32
33,1662,13,-20.82
35,1597,10,-20.32
36,1529,-2,-19.82
37,1458,-8,-19.32
38,1384,-35,-23.78
40,1307,-39,-23.24
41,1230,-27,-22.7
42,1153,-25,-22.16
43,1076,8,-20.62
45,1000,12,-20.08
46,925,3,-19.54
47,853,3,-19
48,783,0,-18.5
50,716,-5,-20.97
51,651,-4,-20.44
52,589,-5,-19.91
53,531,-4,-19.37
55,476,-48,-21.8
56,423,-38,-21.23
57,374,-25,-20.66
58,328,22,-20.11
60,285,19,-20.55
61,246,19,-19.99
62,209,19,-19.43
63,176,19,-18.92
65,146,12,-24.35
66,118,1,-23.78
67,93,-1,-23.21
68,71,-4,-22.69
70,52,-66,-24.15
71,34,-49,-23.61
72,18,-41,-23.07
73,5,20,-22.56
75,-6,25,-26.01
76,-16,21,-25.46
77,-24,19,-24.91
78,-31,22,-24.41
80,-36,11,-31.83
81,-41,4,-31.25
82,-44,-5,-30.67
83,-46,-5,-30.13
85,-47,-65,-34.54
86,-48,-56,-33.95
87,-47,-39,-33.36
88,-47,30,-32.83
90,-45,34,-33.29
91,-44,32,-32.75
92,-42,36,-32.21
93,-40,34,-31.69
95,-38,22,-34.14
96,-36,16,-33.59
97,-34,7,-33.04
98,-32,5,-32.5
100,-30,-42,-33.94
101,-28,-24,-33.38
102,-27,-10,-32.82
103,-26,26,-32.32
105,-25,17,-36.77
106,-23,26,-36.22
107,-22,24,-35.67
108,-21,25,-35.1
110,-20,17,-39.48
111,-20,10,-38.86
112,-19,6,-38.24
113,-18,6,-37.68
115,-18,-24,-41.08
116,-17,-22,-40.48
117,-17,-12,-39.88
118,-16,34,-39.25
120,-16,24,-40.6
121,-16,19,-39.95
122,-15,13,-39.3
123,-15,9,-38.68
125,-14,5,-43.01
126,-13,-3,-42.34
127,-13,-60,-41.67
128,-12,-42,-40.99
130,-11,-34,-40.31
131,-10,-19,-39.63
132,-10,-23,-38.95
133,-9,-21,-38.28
135,-9,-2,-37.61
136,-9,1,-36.94
137,-9,4,-36.27
138,-9,7,-37.61
140,-8,11,-36.95
141,-8,11,-36.29
142,-7,7,-35.63
143,-6,10,-34.97
145,-5,5,-35.3
146,-5,7,-34.63
147,-4,2,-33.96
148,-3,-4,-33.32
150,-1,-2,-35.65
151,0,-8,-34.98
152,0,2,-34.31
153,2,-7,-33.61
155,3,-10,-32.91
156,4,-4,-32.21
157,6,-7,-31.51
158,7,-3,-30.82
160,8,3,-28.15
161,10,-7,-27.48
162,11,0,-26.81
163,12,-6,-26.19
165,14,34,-26.56
166,15,23,-25.93
167,16,17,-25.3
168,17,15,-24.66
170,18,9,-27.98
171,19,8,-27.3
172,19,3,-26.62
173,20,-3,-25.94
175,21,-44,-24.3
176,21,-29,-23.66
177,21,-21,-23.02
178,21,-16,-22.38
180,22,32,-22.76
181,22,32,-22.14
182,22,24,-21.52
183,22,24,-20.9
185,21,15,-20.29
186,21,9,-19.68
187,20,2,-19.07
188,20,-2,-18.46
190,19,-35,-21.87
191,18,-22,-21.28
192,16,-14,-20.69
193,14,-14,-20.1
195,13,25,-18.54
196,12,-4,-17.98
197,10,30,-17.42
198,9,28,-16.86
200,8,23,-21.29
201,6,15,-20.72
202,4,16,-20.15
203,2,-30,-19.58
205,1,-21,-21.07
206,0,-18,-20.56
207,-2,-16,-20.05
208,-4,-10,-19.54
210,-5,37,-18.09
211,-7,17,-17.64
212,-9,10,-17.19
213,-12,6,-17.73
215,-14,10,-17.28
216,-16,-6,-16.83
217,-19,-28,-15.39
218,-21,-28,-14.95
220,-24,-21,-14.54
221,-27,-9,-14.13
222,-30,29,-10.75
223,-33,18,-10.37
225,-35,19,-10.01
226,-38,15,-9.65
227,-40,13,-9.29
228,-43,2,-9.92
230,-45,-6,-9.6
231,-46,-5,-9.28
232,-48,-5,-8.96
233,-50,-3,-8.64
235,-51,-50,-3.42
236,-52,-42,-3.2
237,-53,-22,-2.98
238,-53,19,-2.76
240,-54,17,-0.6
241,-54,15,-0.44
242,-54,18,-0.28
243,-55,14,-0.12
245,-55,8,4.97
246,-55,3,5.06
247,-55,-3,5.15
248,-55,0,5.24
250,-55,-40,10.23
251,-55,-38,10.22
252,-55,-24,10.21
253,-56,-27,10.2
255,-56,-22,16.13
256,-56,35,16.06
257,-57,-1,15.99
258,-57,38,15.92
260,-58,-5,22.78
261,-59,-8,22.64
262,-59,-10,22.5
263,-60,-4,22.34
265,-61,-4,31.09
266,-62,-1,30.84
267,-63,0,30.59
268,-64,1,30.34
270,-65,-2,34.04
271,-66,-1,33.74
272,-66,-3,33.44
273,-66,10,33.14
275,-67,7,44.69
276,-66,7,44.24
277,-66,6,43.79
278,-66,6,43.34
280,-65,16,52.79
281,-64,14,52.24
282,-63,12,51.69
283,-62,6,51.14
285,-61,-7,60.51
286,-59,1,59.88
287,-58,6,59.25
288,-57,10,58.62
290,-56,2,67.88
291,-54,2,67.14
292,-53,1,66.4
293,-51,1,65.66
295,-49,-4,77.75
296,-47,-7,76.84
297,-45,-3,75.93
298,-42,36,75.02
300,-39,27,85.01
301,-36,18,84
302,-33,7,82.99
303,-30,6,81.98
305,-26,2,90.86
306,-22,-1,89.74
307,-18,-3,88.62
308,-15,0,87.5
310,-11,-43,98.26
311,-7,-21,97.02
312,-3,-20,95.78
313,0,-19,94.54
315,4,13,108.11
316,8,14,106.68
317,12,11,105.25
318,17,13,103.82
320,21,8,109.33
321,25,5,107.84
322,29,-5,106.35
323,33,-7,104.86
325,37,-62,115.2
326,40,-48,113.54
327,44,-29,111.88
328,48,-12,110.22
330,52,44,120.42
331,55,55,118.62
332,59,50,116.82
333,62,47,124.92
335,65,34,123.03
336,69,-3,121.14
337,72,-28,124.2
338,75,-32,122.25
340,78,-27,120.3
341,80,-9,118.35
342,83,12,128.29
343,86,6,126.23
345,88,17,124.17
346,91,8,122.11
347,93,-44,120.08
348,95,-37,123.99
350,98,-35,121.9
351,100,-32,119.81
352,102,-21,117.72
353,105,-15,115.62
355,107,-6,116.49
356,109,3,114.36
357,111,2,112.23
358,114,48,110.1
360,116,42,114.95
361,118,33,112.8
362,121,28,110.65
363,124,20,108.5
365,126,13,115.28
366,129,8,113.06
367,132,5,110.84
368,134,6,108.62
370,137,-35,113.38
371,139,-18,111.14
372,141,-15,108.9
373,142,29,106.66
375,144,18,106.45
376,146,16,104.24
377,147,-24,102.03
378,149,21,99.82
380,151,-25,104.6
381,152,-19,102.38
382,154,-15,100.16
383,156,-9,97.94
385,157,-13,101.73
386,158,-4,99.52
387,159,-2,97.31
388,159,-5,95.1
390,160,-14,93.97
391,160,1,91.84
392,160,4,89.71
393,160,8,87.58
395,160,4,91.43
396,160,7,89.28
397,160,9,87.13
398,160,8,84.98
400,160,17,83.94
401,161,12,81.9
402,161,5,79.86
403,161,-2,77.82
405,161,-1,78.85
406,162,-4,76.88
407,162,-1,74.91
408,163,-8,72.94
410,164,-7,72.06
411,165,-7,70.18
412,166,-2,68.3
413,167,-2,66.42
415,167,3,63.65
416,168,-10,61.88
417,169,-12,60.11
418,170,-8,58.34
420,171,41,58.68
421,172,34,57.02
422,172,25,55.36
423,172,24,53.7
425,172,22,47.2
426,172,10,45.7
427,172,-3,44.2
428,172,-6,42.7
430,172,-40,41.3
431,172,-23,39.9
432,173,-22,38.5
433,173,-22,37.1
435,173,20,37.8
436,174,16,36.5
437,174,18,35.2
438,175,13,33.9
440,175,8,30.77
441,176,6,29.64
442,176,2,28.51
443,176,-2,27.38
445,177,-38,22.36
446,177,-29,21.34
447,178,-26,20.32
448,178,-23,19.3
450,179,29,20.38
451,179,19,19.46
452,179,20,18.54
453,180,22,13.66
455,180,14,12.9
456,180,2,12.14
457,180,-39,11.38
458,180,-37,10.72
460,180,-21,10.06
461,180,-10,9.4
462,180,26,6.81
463,180,26,6.22
465,179,21,5.63
466,179,26,5.04
467,179,-5,4.57
468,179,-23,3.11
470,178,-19,2.65
471,178,-16,2.19
472,178,-14,1.73
473,178,-4,1.33
475,178,-3,-6
476,178,-2,-6.33
477,178,-8,-6.66
478,178,36,-6.99
480,179,25,-8.28
481,179,22,-8.57
482,179,17,-8.86
483,179,12,-9.15
485,179,7,-12.34
486,179,6,-12.53
487,179,0,-12.72
488,179,0,-12.91
490,179,-37,-13.01
491,179,-24,-13.11
492,178,-13,-13.21
493,177,-8,-13.31
495,177,32,-21.26
496,175,8,-21.21
497,174,40,-21.16
498,173,37,-21.11
500,172,25,-20.05
501,170,20,-19.99
502,169,-30,-19.93
503,168,-23,-19.87
505,167,-19,-21.72
506,166,-19,-21.57
507,164,-17,-21.42
508,163,-10,-21.27
510,162,-13,-26.01
511,161,-12,-25.75
512,160,-7,-25.49
513,160,-12,-25.23
515,159,-7,-27.93
516,159,-9,-27.63
517,159,-3,-27.33
518,159,-4,-27.03
520,158,5,-24.69
521,159,5,-24.35
522,159,9,-24.01
523,159,5,-23.67
525,159,-6,-30.25
526,159,-8,-29.83
527,159,-1,-29.41
528,159,-12,-28.99
530,159,-6,-28.54
531,159,-7,-28.09
532,159,3,-27.64
533,160,9,-27.19
535,160,0,-28.71
536,161,2,-28.23
537,161,7,-27.75
538,162,-2,-27.27
540,162,37,-29.77
541,163,26,-29.27
542,164,22,-28.77
543,164,16,-28.27
545,165,11,-29.73
546,166,7,-29.19
547,166,5,-28.65
548,167,0,-28.11
550,167,-51,-30.59
551,167,-22,-30.07
552,167,-25,-29.55
553,167,-13,-29.03
555,167,29,-32.47
556,167,32,-31.91
557,166,27,-31.35
558,166,24,-30.79
560,165,17,-28.23
561,165,10,-27.67
562,164,0,-27.11
563,163,-5,-26.55
565,162,-42,-30.96
566,162,-29,-30.37
567,161,-31,-29.78
568,160,-18,-29.19
570,159,18,-29.63
571,158,19,-29.07
572,157,19,-28.51
573,157,20,-29.93
575,156,13,-29.33
576,156,10,-28.73
577,156,-33,-32.09
578,156,-26,-31.49
580,155,-24,-30.89
581,155,-13,-30.29
582,155,29,-29.69
583,154,21,-32.06
585,154,26,-31.43
586,153,27,-30.8
587,152,19,-30.19
588,152,12,-29.58
590,150,4,-29.96
591,149,-3,-29.34
592,147,-4,-28.72
593,145,-7,-28.11
595,143,-38,-28.49
596,140,-28,-27.87
597,138,-22,-27.25
598,135,27,-26.63
600,133,14,-27.07
601,130,19,-26.51
602,127,20,-25.95
603,124,19,-25.39
605,121,11,-28.8
606,118,-1,-28.21
607,114,-42,-27.62
608,111,-31,-27.03
610,108,-18,-24.49
611,106,-16,-23.95
612,103,-13,-23.41
613,102,26,-22.87
615,100,20,-25.3
616,99,18,-24.73
617,98,14,-24.16
618,97,9,-23.59
620,96,5,-26.07
621,96,1,-25.55
622,95,-2,-25.03
623,94,-1,-24.51
625,94,-36,-22.99
626,95,-37,-22.47
627,96,-18,-21.95
628,97,-14,-21.43
630,99,5,-26.87
631,100,46,-26.31
632,102,8,-25.75
633,103,53,-25.19
635,106,3,-27.65
636,108,2,-27.11
637,110,0,-26.57
638,113,-7,-26.03
640,116,-5,-28.49
641,119,-2,-27.95
642,123,-4,-27.41
643,126,-1,-26.87
645,130,-1,-27.3
646,134,-5,-26.73
647,137,-11,-26.16
648,141,-5,-25.59
650,145,-16,-33.01
651,148,-13,-32.43
652,151,-17,-31.85
653,155,-12,-31.27
655,157,-7,-32.67
656,160,-11,-32.07
657,161,-10,-31.47
658,163,-8,-30.87
660,164,-9,-31.28
661,166,5,-30.69
662,167,8,-30.1
663,168,12,-29.51
665,169,10,-31.92
666,169,8,-31.33
667,170,0,-30.74
668,170,1,-30.15
670,171,1,-35.52
671,171,0,-34.89
672,171,-8,-34.26
673,170,-8,-33.63
675,170,31,-35.01
676,170,27,-34.39
677,170,19,-33.77
678,170,17,-33.15
680,170,12,-36.53
681,169,7,-35.91
682,169,6,-35.29
683,169,1,-34.67
685,168,-63,-37
686,167,-39,-36.33
687,166,-21,-35.66
688,165,-13,-34.99
690,164,29,-41.3
691,163,29,-40.61
692,162,29,-39.92
693,161,28,-39.23
695,160,18,-38.55
696,160,10,-37.87
697,160,4,-37.19
698,159,-1,-36.53
700,159,-44,-37.85
701,158,-39,-37.17
702,157,-17,-36.53
703,156,-9,-35.89
705,155,26,-41.19
706,154,25,-40.49
707,153,22,-39.79
708,151,27,-42.09
710,150,15,-41.39
711,149,13,-40.69
712,148,-21,-40.98
713,146,-30,-40.27
715,145,-10,-39.57
716,144,-1,-38.87
717,142,27,-38.17
718,141,25,-43.41
720,140,24,-42.66
721,139,28,-41.91
722,138,6,-41.16
723,137,-26,-40.41
725,136,-24,-39.67
726,135,-21,-38.93
727,134,-16,-38.19
728,133,-10,-37.45
730,132,-8,-40.71
731,131,-2,-39.97
732,130,-2,-39.23
733,129,33,-38.49
735,128,25,-41.69
736,127,19,-40.89
737,126,10,-40.09
738,125,5,-39.29
740,125,-1,-38.52
741,124,-2,-37.75
742,123,-8,-36.98
743,123,-8,-36.21
745,123,-49,-39.43
746,123,-41,-38.65
747,123,-40,-37.87
748,123,18,-37.09
750,123,19,-40.26
751,123,20,-39.43
752,123,-37,-38.6
753,123,27,-37.77
755,123,-32,-38.98
756,123,-19,-38.19
757,122,-18,-37.4
758,122,-11,-36.61
760,121,-16,-38.82
761,121,10,-38.03
762,120,9,-37.24
763,119,-4,-36.45
765,118,5,-37.67
766,118,-3,-36.89
767,117,4,-36.11
768,117,1,-35.33
770,116,5,-37.53
771,116,2,-36.73
772,115,-3,-35.93
773,115,4,-35.13
775,114,7,-37.38
776,114,13,-36.63
777,113,11,-35.88
778,113,8,-35.13
780,112,4,-33.41
781,112,0,-32.69
782,112,4,-31.97
783,112,5,-31.25
785,111,5,-34.5
786,111,1,-33.75
787,110,1,-33
788,110,5,-32.25
790,109,7,-30.54
791,109,9,-29.83
792,108,11,-29.12
793,108,9,-28.41
795,108,44,-30.73
796,107,37,-30.05
797,107,34,-29.37
798,106,29,-28.69
800,105,11,-27.04
801,105,5,-26.39
802,105,10,-25.74
803,105,-2,-25.09
805,104,-40,-27.45
806,104,-31,-26.81
807,104,-31,-26.17
808,103,-21,-25.53
810,103,18,-26.9
811,102,17,-26.27
812,102,12,-25.64
813,101,4,-25.01
815,101,3,-26.43
816,102,2,-25.85
817,103,-8,-25.27
818,105,-3,-24.69
820,108,-31,-27.08
821,113,-30,-26.47
822,119,-9,-25.86
823,125,-14,-25.25
825,131,32,-20.7
826,137,20,-20.15
827,142,19,-19.6
828,145,16,-23.01
830,146,5,-22.48
831,144,2,-21.95
832,143,-40,-18.45
833,143,-44,-17.98
835,142,-27,-17.51
836,142,-19,-17.04
837,142,17,-16.58
838,149,13,-20.08
840,161,25,-19.58
841,179,23,-19.08
842,200,18,-18.58
843,225,11,-18.14
845,260,5,-17.7
846,304,-2,-17.26
847,355,-1,-16.82
848,411,-3,-16.38
850,480,-38,-11.98
851,557,-31,-11.58
852,641,-27,-11.18
853,731,-13,-10.78
855,826,23,-13.39
856,927,21,-13
857,1030,21,-12.61
858,1133,22,-12.22
860,1233,13,-10.88
861,1327,10,-10.54
862,1417,6,-10.2
863,1500,2,-9.86
865,1570,-31,-11.5
866,1628,-20,-11.14
867,1675,-7,-10.78
868,1711,11,-10.42
870,1732,24,-11.09
871,1740,26,-10.76
872,1737,24,-10.43
873,1725,21,-10.1
875,1699,22,-12.78
876,1664,11,-12.46
877,1621,4,-12.14
878,1571,-36,-11.82
880,1513,-30,-11.52
881,1450,-20,-11.22
882,1382,-16,-10.92
883,1312,-23,-10.62
885,1239,-6,-12.33
886,1163,-8,-12.04
887,1086,-3,-11.75
888,1009,-3,-11.46
890,931,-4,-18.12
891,854,-3,-17.78
892,778,-2,-17.44
893,704,-4,-17.1
895,632,1,-22.73
896,562,-1,-22.36
897,494,4,-21.99
898,430,-2,-21.62
900,368,6,-19.3
901,310,4,-18.98
902,254,0,-18.66
903,203,-3,-18.34
905,154,7,-21.97
906,109,-4,-21.6
907,68,5,-21.23
908,30,-1,-20.86
910,-4,3,-22.51
911,-36,6,-22.16
912,-65,4,-21.81
913,-90,-6,-21.46
915,-113,30,-25.06
916,-134,25,-24.66
917,-152,10,-24.26
918,-169,10,-23.86
920,-183,6,-30.42
921,-195,3,-29.98
922,-205,-1,-29.54
923,-214,-5,-29.1
925,-221,-48,-32.61
926,-227,-32,-32.12
927,-231,-35,-31.63
928,-234,-15,-31.14
930,-236,21,-33.65
931,-237,22,-33.16
932,-237,22,-32.67
933,-236,22,-32.18
935,-236,13,-34.68
936,-235,11,-34.18
937,-234,6,-33.68
938,-233,-1,-33.18
940,-232,-43,-38.64
941,-231,-30,-38.1
942,-229,-16,-37.56
943,-228,-16,-37.02
945,-226,31,-37.5
946,-225,32,-36.98
947,-223,31,-36.46
948,-221,37,-39.9
950,-219,14,-39.3
951,-217,3,-38.7
952,-215,-36,-44.04
953,-213,-38,-43.42
955,-211,-27,-42.8
956,-209,-20,-42.18
957,-208,20,-41.53
958,-206,23,-42.86
960,-204,18,-42.19
961,-203,20,-41.52
962,-201,-9,-40.85
963,-200,-17,-40.22
965,-199,-10,-38.6
966,-198,-11,-37.98
967,-198,-8,-37.36
968,-199,-2,-36.74
970,-199,-2,-42.06
971,-199,6,-41.38
972,-200,3,-40.7
973,-200,6,-40.02
975,-200,30,-39.3
976,-200,21,-38.58
977,-199,19,-37.86
978,-199,20,-37.14
980,-198,10,-36.45
981,-196,1,-35.76
982,-195,-1,-35.07
983,-193,0,-34.38
985,-192,-39,-32.69
986,-190,-23,-32
987,-188,-13,-31.31
988,-186,17,-30.62
990,-184,21,-29.95
991,-182,25,-29.28
992,-179,23,-28.61
993,-177,24,-27.94
995,-174,9,-24.31
996,-172,8,-23.68
997,-170,-5,-23.05
998,-168,-9,-22.42
1000,-166,-36,-22.81
1001,-163,-32,-22.2
1002,-161,-12,-21.59
1003,-159,14,-20.98
1005,-157,9,-19.38
1006,-155,-13,-18.78
1007,-153,16,-18.18
1008,-151,-20,-17.58
1010,-149,-28,-18.98
1011,-147,-27,-18.38
1012,-145,-18,-17.78
1013,-142,-12,-17.18
1015,-140,-11,-14.67
1016,-138,-12,-14.16
1017,-136,-5,-13.65
1018,-134,-13,-13.14
1020,-132,2,-16.65
1021,-129,0,-16.16
1022,-127,4,-15.67
1023,-124,4,-15.18
1025,-122,12,-14.67
1026,-120,8,-14.16
1027,-118,16,-13.65
1028,-117,4,-13.14
1030,-116,9,-14.65
1031,-115,6,-14.16
1032,-114,10,-13.67
1033,-113,2,-13.18
1035,-113,-1,-12.71
1036,-112,-6,-12.24
1037,-112,-9,-11.77
1038,-112,-12,-11.3
1040,-112,-18,-13.84
1041,-111,-10,-13.38
1042,-111,-11,-12.92
1043,-111,-8,-12.46
1045,-111,-4,-12.07
1046,-111,-5,-11.68
1047,-111,-1,-11.29
1048,-111,-17,-10.9
1050,-112,42,-11.54
1051,-112,36,-11.18
1052,-113,29,-10.82
1053,-114,25,-10.46
1055,-114,20,-9.14
1056,-115,14,-8.82
1057,-116,7,-8.5
1058,-117,-2,-8.18
1060,-118,-52,-8.88
1061,-119,-35,-8.58
1062,-120,-26,-8.28
1063,-121,-44,-7.98
1065,-122,32,-7.74
1066,-123,30,-7.5
1067,-124,28,-7.26
1068,-125,29,-7.02
1070,-126,18,-4.81
1071,-128,14,-4.6
1072,-129,10,-4.39
1073,-130,0,-4.22
1075,-132,-37,-4.05
1076,-134,-28,-3.88
1077,-136,-9,-3.77
1078,-139,-17,-3.66
1080,-141,30,-2.56
1081,-144,27,-2.46
1082,-147,31,-2.36
1083,-151,29,1.68
1085,-155,25,1.72
1086,-159,10,1.76
1087,-163,-29,7.74
1088,-167,-37,7.72
1090,-172,-25,7.71
1091,-177,-14,7.7
1092,-181,31,7.69
1093,-186,21,14.61
1095,-191,12,14.47
1096,-195,19,14.33
1097,-200,13,14.19
1098,-205,-20,14.05
1100,-209,-45,21.83
1101,-213,-23,21.61
1102,-217,-12,21.39
1103,-220,-2,21.17
1105,-224,5,29.86
1106,-227,9,29.55
1107,-230,15,29.24
1108,-233,12,28.93
1110,-235,47,40.51
1111,-237,32,40.09
1112,-239,38,39.67
1113,-241,25,39.25
1115,-242,21,46.75
1116,-244,14,46.25
1117,-244,1,45.75
1118,-245,-6,45.25
1120,-245,-42,58.64
1121,-245,-38,58.03
1122,-246,-28,57.42
1123,-246,-2,56.81
1125,-246,18,72.03
1126,-246,17,71.25
1127,-246,-3,70.47
1128,-246,-19,69.69
1130,-246,-13,81.79
1131,-247,-16,80.89
1132,-247,-17,79.99
1133,-247,-12,79.09
1135,-247,-9,91.04
1136,-247,-4,89.99
1137,-247,-2,88.94
1138,-246,-7,87.89
1140,-245,-10,100.72
1141,-244,-11,99.55
1142,-242,-3,98.38
1143,-240,-15,97.21
1145,-238,-4,109.86
1146,-235,-4,108.51
1147,-233,-4,107.16
1148,-231,-1,105.81
1150,-228,5,114.36
1151,-225,9,112.91
1152,-221,2,111.46
1153,-218,-7,110.01
1155,-213,-10,122.4
1156,-209,-9,120.79
1157,-205,-7,119.18
1158,-200,-11,117.57
1160,-195,-16,124.87
1161,-191,-7,123.17
1162,-186,-10,121.47
1163,-182,-1,119.77
1165,-177,-11,126.95
1166,-173,-15,125.13
1167,-168,0,123.31
1168,-164,2,121.49
1170,-159,47,126.6
1171,-155,41,124.71
1172,-151,37,122.82
1173,-147,34,120.93
1175,-143,26,128.93
1176,-139,22,126.93
1177,-135,29,124.93
1178,-131,18,122.93
1180,-127,-17,128.86
1181,-124,-13,126.79
1182,-120,-12,124.72
1183,-117,-20,122.65
1185,-113,12,125.52
1186,-110,5,123.39
1187,-107,-2,121.26
1188,-103,1,119.13
1190,-100,-3,124.92
1191,-97,-3,122.71
1192,-93,-5,120.5
1193,-90,-6,118.29
1195,-87,-57,121.05
1196,-83,-45,118.81
1197,-80,-32,116.57
1198,-77,-30,114.33
1200,-74,34,119.02
1201,-71,24,116.71
1202,-68,22,114.4
1203,-65,22,113.08
1205,-62,22,110.77
1206,-59,11,108.46
1207,-56,-41,112.09
1208,-53,-52,109.76
1210,-50,-18,107.43
1211,-47,0,105.1
1212,-45,38,102.83
1213,-42,40,106.5
1215,-39,28,104.17
1216,-36,37,101.84
1217,-33,-10,99.51
1218,-30,-18,97.25
1220,-27,-19,99.94
1221,-25,-16,97.63
1222,-22,-11,95.32
1223,-20,-4,93.01
1225,-17,3,91.77
1226,-15,4,89.53
1227,-13,10,87.29
1228,-11,23,85.05
1230,-9,37,88.84
1231,-7,26,86.63
1232,-6,23,84.42
1233,-4,17,82.21
1235,-3,13,88.04
1236,-1,11,85.87
1237,0,4,83.7
1238,1,2,81.53
1240,2,-26,84.39
1241,4,-25,82.25
1242,6,-17,80.11
1243,8,-1,77.97
1245,10,17,78.94
1246,11,24,76.91
1247,13,10,74.88
1248,15,14,72.85
1250,17,-3,72.96
1251,18,-7,71.07
1252,19,-29,69.18
1253,21,-50,67.29
1255,22,-47,70.48
1256,24,-35,68.67
1257,26,-22,66.86
1258,28,-22,65.05
1260,30,-4,59.41
1261,32,-8,57.77
1262,34,-1,56.13
1263,37,-9,54.49
1265,39,-4,62.89
1266,41,0,61.29
1267,42,-2,59.69
1268,44,5,58.09
1270,45,10,56.63
1271,47,6,55.17
1272,49,9,53.71
1273,50,3,52.25
1275,52,5,46.93
1276,54,5,45.61
1277,55,4,44.29
1278,57,2,42.97
1280,59,3,43.77
1281,61,4,42.57
1282,63,6,41.37
1283,65,4,40.17
1285,67,2,40.05
1286,68,-6,38.93
1287,70,1,37.81
1288,72,-3,36.69
1290,73,36,32.69
1291,75,29,31.69
1292,76,22,30.69
1293,78,18,29.69
1295,80,13,29.75
1296,81,9,28.81
1297,83,4,27.87
1298,85,2,26.93
1300,87,-54,27.08
1301,89,-34,26.23
1302,91,-15,25.38
1303,93,-10,24.53
1305,94,32,16.83
1306,96,24,16.13
1307,97,25,15.43
1308,99,22,14.73
1310,100,12,13.09
1311,101,7,12.45
1312,101,11,11.81
1313,102,3,11.17
1315,102,-32,10.61
1316,103,-24,10.05
1317,104,-10,9.49
1318,104,-16,8.93
1320,105,19,0.5
1321,105,12,0.07
1322,106,16,-0.36
1323,106,15,-0.79
1325,106,19,-1.15
1326,106,11,-1.51
1327,105,-30,-11.77
1328,105,-27,-12.02
1330,104,-12,-12.27
1331,104,-8,-12.52
1332,103,34,-12.71
1333,102,22,-15.87
1335,102,21,-16.03
1336,103,25,-16.19
1337,103,-12,-16.35
1338,104,-20,-16.45
1340,105,-20,-26.45
1341,106,-20,-26.45
1342,108,-15,-26.45
1343,109,-5,-26.45
1345,111,1,-30.36
1346,112,1,-30.27
1347,112,1,-30.18
1348,113,5,-30.09
1350,113,32,-35.93
1351,114,23,-35.77
1352,113,11,-35.61
1353,113,7,-35.45
1355,113,5,-46.12
1356,112,-1,-45.79
1357,111,-5,-45.46
1358,109,-8,-45.13
1360,108,-43,-53.63
1361,106,-44,-53.13
1362,104,-22,-52.63
1363,102,0,-52.13
1365,100,21,-58.51
1366,98,18,-57.89
1367,96,17,-57.27
1368,94,16,-56.65
1370,93,11,-60.95
1371,91,5,-60.25
1372,90,2,-59.55
1373,88,0,-58.85
1375,87,-54,-65.06
1376,86,-44,-64.27
1377,84,-29,-63.48
1378,83,-35,-62.69
1380,82,30,-64.82
1381,80,-13,-63.95
1382,79,37,-63.08
1383,78,2,-62.21
1385,76,-19,-65.34
1386,74,-7,-64.47
1387,72,-1,-63.6
1388,70,-3,-62.73
1390,69,2,-66.71
1391,67,2,-65.69
1392,66,9,-64.67
1393,64,-3,-63.65
1395,63,5,-70.55
1396,62,5,-69.45
1397,61,-9,-68.35
1398,60,-6,-67.25
1400,59,4,-67.18
1401,57,5,-66.11
1402,56,0,-65.04
1403,55,-8,-63.97
1405,55,12,-62.88
1406,54,15,-61.79
1407,53,10,-60.7
1408,52,9,-59.61
1410,52,10,-61.48
1411,51,-4,-60.35
1412,51,1,-59.22
1413,50,7,-58.09
1415,50,0,-56
1416,49,0,-54.91
1417,49,1,-53.82
1418,48,3,-52.73
1420,47,7,-52.62
1421,46,5,-51.51
1422,45,2,-50.4
1423,44,-4,-49.29
1425,43,34,-49.16
1426,41,37,-48.03
1427,40,23,-46.9
1428,38,6,-45.77
1430,37,3,-45.7
1431,36,7,-44.63
1432,34,-5,-43.56
1433,33,0,-42.49
1435,32,-43,-37.47
1436,30,-38,-36.45
1437,28,-18,-35.43
1438,27,-23,-34.41
1440,25,24,-38.34
1441,22,18,-37.27
1442,20,19,-36.2
1443,17,25,-35.13
1445,14,13,-34.14
1446,12,10,-33.15
1447,9,-23,-32.16
1448,6,-23,-31.17
1450,3,-5,-30.18
1451,1,0,-29.19
1452,-1,37,-28.3
1453,-4,45,-33.35
1455,-6,43,-32.4
1456,-9,33,-31.45
1457,-11,18,-30.5
1458,-13,15,-29.58
1460,-15,6,-31.63
1461,-16,2,-30.68
1462,-17,-7,-29.73
1463,-18,-8,-28.78
1465,-18,-49,-27.93
1466,-18,-47,-27.08
1467,-18,-45,-26.23
1468,-18,-33,-25.38
1470,-17,-2,-30.51
1471,-15,2,-29.64
1472,-14,4,-28.77
1473,-12,2,-27.9
1475,-9,7,-31.05
1476,-6,1,-30.2
1477,-4,4,-29.35
1478,0,2,-28.5
1480,2,-43,-34.69
1481,6,-35,-33.88
1482,10,-19,-33.07
1483,15,1,-32.26
1485,20,25,-33.52
1486,25,23,-32.78
1487,30,23,-32.04
1488,36,22,-31.3
1490,42,16,-35.58
1491,47,8,-34.86
1492,53,3,-34.14
1493,58,5,-33.42
1495,63,-46,-36.71
1496,68,-46,-36
1497,72,-27,-35.29
1498,76,3,-34.58
1500,79,25,-45.82
1501,81,24,-45.06
1502,84,8,-44.3
1503,85,-20,-43.54
1505,86,-4,-41.82
1506,87,-7,-41.1
1507,87,1,-40.38
1508,86,-7,-39.66
1510,86,11,-43.93
1511,85,7,-43.2
1512,84,11,-42.47
1513,83,-3,-41.74
1515,82,0,-47.99
1516,80,-13,-47.24
1517,79,-13,-46.49
1518,77,-2,-45.74
1520,76,4,-45.07
1521,74,0,-51.33
1522,73,4,-50.59
1523,71,0,-49.85
1525,69,12,-49.12
1526,67,5,-52.35
1527,65,8,-51.58
1528,63,4,-50.81
1530,60,-3,-50.04
1531,58,0,-55.21
1532,55,4,-54.38
1533,53,-1,-53.55
1535,50,11,-52.75
1536,48,4,-54.92
1537,46,4,-54.09
1538,44,7,-53.26
1540,42,-1,-52.42
1541,40,2,-61.48
1542,37,0,-60.54
1543,35,34,-59.6
1545,33,37,-58.67
1546,31,30,-59.72
1547,28,29,-58.77
1548,25,28,-57.82
1550,23,17,-56.88
1551,20,6,-59.9
1552,17,-2,-58.92
1553,14,-6,-57.94
1555,12,-47,-56.97
1556,9,-37,-59.96
1557,7,-30,-58.95
1558,4,-22,-57.94
1560,2,22,-56.89
1561,0,20,-56.83
1562,-1,13,-55.77
1563,-3,21,-54.71
1565,-4,8,-53.7
1566,-6,2,-60.61
1567,-7,4,-59.52
1568,-8,-4,-58.43
1570,-9,-42,-57.34
1571,-9,-26,-58.23
1572,-10,-20,-57.12
1573,-11,-16,-56.01
1575,-11,26,-54.9
1576,-12,20,-56.76
1577,-12,12,-55.62
1578,-12,17,-59.49
1580,-13,10,-58.36
1581,-13,9,-57.23
1582,-14,-37,-56.1
1583,-14,-37,-53.98
1585,-14,-31,-52.89
1586,-14,-27,-51.8
1587,-14,22,-50.71
1588,-14,12,-55.56
1590,-14,15,-54.41
1591,-14,23,-53.26
1592,-13,-28,-52.11
1593,-13,-33,-50.96
1595,-12,-32,-49.87
1596,-11,-34,-50.76
1597,-11,-20,-49.65
1598,-10,-13,-48.54
1600,-10,-7,-47.47
1601,-9,2,-52.34
1602,-9,-3,-51.21
1603,-8,49,-50.08
1605,-7,41,-49.02
1606,-6,31,-49.94
1607,-5,27,-48.86
1608,-5,19,-47.78
1610,-4,13,-46.72
1611,-4,4,-49.62
1612,-4,1,-48.52
1613,-5,2,-47.42
1615,-6,-54,-46.37
1616,-7,-41,-46.31
1617,-8,-29,-45.25
1618,-10,25,-44.19
1620,-12,24,-43.17
1621,-13,23,-50.07
1622,-14,20,-48.97
1623,-16,22,-47.87
1625,-17,12,-46.89
1626,-18,5,-53.83
1627,-20,-59,-52.77
1628,-21,-47,-51.71
1630,-22,-30,-50.64
1631,-23,-23,-50.56
1632,-25,-15,-49.48
1633,-26,-10,-48.4
1635,-27,3,-47.37
1636,-28,13,-54.26
1637,-29,4,-53.15
1638,-29,10,-52.04
1640,-30,8,-51
1641,-30,10,-53.92
1642,-31,6,-52.84
1643,-31,17,-51.76
1645,-31,11,-50.68
1646,-31,8,-51.65
1647,-32,3,-50.62
1648,-32,1,-49.59
1650,-32,0,-48.56
1651,-32,-9,-47.57
1652,-32,7,-46.58
1653,-33,0,-45.59
1655,-34,8,-44.6
1656,-35,2,-48.62
1657,-36,3,-47.64
1658,-37,4,-46.66
1660,-38,-6,-45.68
1661,-39,-1,-45.72
1662,-40,-9,-44.76
1663,-40,38,-43.8
1665,-39,25,-42.84
1666,-38,20,-41.98
1667,-35,15,-41.12
1668,-31,11,-40.26
1670,-27,6,-39.4
1671,-23,2,-41.53
1672,-19,1,-40.66
1673,-16,2,-39.79
1675,-12,-39,-38.92
1676,-12,-20,-40.07
1677,-13,-11,-39.22
1678,-17,0,-38.37
1680,-22,43,-37.52
1681,-28,41,-40.67
1682,-33,37,-39.82
1683,-39,39,-38.97
1685,-45,22,-38.12
1686,-43,22,-39.26
1687,-36,6,-38.4
1688,-24,1,-37.54
1690,-8,-37,-36.68
1691,20,-33,-36.89
1692,57,-27,-36.1
1693,103,-28,-35.31
1695,155,16,-34.52
1696,220,10,-32.76
1697,295,-34,-32
1698,378,14,-31.24
1700,467,8,-30.48
1701,564,3,-29.75
1702,666,-3,-29.02
1703,772,-5,-28.34
1705,878,-39,-27.66
1706,981,-31,-28.96
1707,1080,-23,-28.26
1708,1173,-27,-27.55
1710,1261,27,-26.84
1711,1336,25,-25.14
1712,1398,24,-24.44
1713,1450,28,-23.8
1715,1485,25,-27.12
1716,1507,15,-26.44
1717,1517,-25,-25.76
1718,1512,-33,-22.11
1720,1493,-17,-21.46
1721,1465,-1,-20.83
1722,1427,13,-20.2
1723,1383,37,-19.57
1725,1331,28,-15.97
1726,1273,27,-15.43
1727,1210,18,-14.89
1728,1145,-6,-14.35
1730,1077,-34,-13.81
1731,1007,-33,-21.21
1732,935,-23,-20.61
1733,863,-23,-20.01
1735,791,-20,-19.41
1736,718,-10,-18.85
1737,647,-7,-18.29
1738,576,21,-17.73
1740,508,21,-17.17
1741,441,18,-17.61
1742,376,14,-17.05
1743,313,8,-16.49
1745,254,3,-15.93
1746,196,1,-16.44
1747,142,-1,-15.95
1748,90,1,-15.46
1750,42,-35,-14.97
1751,-2,-22,-14.56
1752,-45,-14,-14.15
1753,-84,-11,-13.74
1755,-121,21,-13.33
1756,-154,19,-16.89
1757,-185,-11,-16.45
1758,-213,24,-16.01
1760,-239,12,-15.57
1761,-262,-39,-16.2
1762,-282,-32,-15.83
1763,-300,-23,-15.46
1765,-316,-31,-15.09
1766,-330,-22,-16.74
1767,-342,-19,-16.39
1768,-352,-16,-16.04
1770,-360,-14,-15.69
1771,-367,-5,-18.33
1772,-372,-8,-17.97
1773,-377,-9,-17.61
1775,-380,-5,-17.25
1776,-383,6,-19.86
1777,-385,4,-19.47
1778,-386,5,-19.08
1780,-387,14,-18.69
1781,-388,19,-15.38
1782,-388,15,-15.07
1783,-388,13,-14.76
1785,-388,10,-14.45
1786,-387,12,-22.07
1787,-386,10,-21.69
1788,-385,8,-21.31
1790,-384,10,-20.93
1791,-383,11,-19.56
1792,-382,12,-19.19
1793,-381,4,-18.82
1795,-380,6,-18.45
1796,-378,1,-24.05
1797,-377,7,-23.65
1798,-376,38,-23.25
1800,-375,35,-22.85
1801,-373,25,-27.42
1802,-372,17,-26.99
1803,-370,19,-26.56
1805,-368,12,-26.13
1806,-367,9,-26.73
1807,-365,2,-26.33
1808,-364,-1,-25.93
1810,-363,-35,-25.53
1811,-362,-27,-31.09
1812,-361,-21,-30.65
1813,-360,-21,-30.21
1815,-359,22,-29.77
1816,-359,16,-29.34
1817,-358,16,-28.91
1818,-358,11,-28.48
1820,-357,7,-28.05
1821,-357,-2,-31.57
1822,-357,-3,-31.09
1823,-356,-8,-30.61
1825,-356,-46,-30.13
1826,-356,-26,-31.63
1827,-356,-16,-31.13
1828,-356,-11,-30.63
1830,-355,29,-30.13
1831,-355,30,-33.61
1832,-355,27,-33.09
1833,-355,26,-32.57
1835,-355,12,-33.04
1836,-355,14,-32.5
1837,-355,-30,-31.96
1838,-354,-22,-35.38
1840,-354,-18,-34.84
1841,-354,-13,-34.3
1842,-354,27,-33.76
1843,-354,29,-33.19
1845,-354,28,-32.62
1846,-354,25,-32.05
1847,-354,-28,-31.48
1848,-355,-25,-30.91
1850,-355,-19,-30.31
1851,-355,-21,-31.69
1852,-356,-16,-31.07
1853,-356,-15,-30.45
1855,-356,-9,-29.83
1856,-356,-7,-34.24
1857,-356,-11,-33.65
1858,-356,25,-33.06
1860,-356,20,-32.47
1861,-356,12,-31.88
1862,-356,10,-31.29
1863,-355,12,-30.7
1865,-355,5,-30.11
1866,-355,2,-32.5
1867,-354,2,-31.89
1868,-354,1,-31.28
1870,-354,-34,-30.67
1871,-353,-27,-30.07
1872,-353,-18,-29.47
1873,-353,23,-28.87
1875,-352,20,-28.27
1876,-352,16,-34.6
1877,-352,-31,-33.93
1878,-351,19,-33.26
1880,-351,-30,-32.59
1881,-351,-33,-33.94
1882,-351,-22,-33.29
1883,-350,-20,-32.64
1885,-350,-7,-31.99
1886,-350,-1,-32.34
1887,-349,6,-31.69
1888,-349,10,-31.04
1890,-349,14,-30.39
1891,-349,5,-34.71
1892,-349,5,-34.03
1893,-349,14,-33.35
1895,-349,8,-32.67
1896,-350,6,-33.01
1897,-350,7,-32.35
1898,-351,2,-31.69
1900,-352,5,-31.03
1901,-352,4,-37.33
1902,-353,-2,-36.63
1903,-354,-5,-35.93
1905,-354,-5,-35.23
1906,-355,-6,-29.55
1907,-356,0,-28.87
1908,-357,-4,-28.19
1910,-358,0,-27.51
1911,-359,-13,-31.86
1912,-360,6,-31.21
1913,-362,4,-30.56
1915,-363,3,-29.91
1916,-365,4,-30.24
1917,-366,9,-29.57
1918,-368,36,-28.9
1920,-369,35,-28.23
1921,-371,25,-26.63
1922,-372,22,-26.03
1923,-374,13,-25.43
1925,-375,7,-24.83
1926,-377,4,-27.25
1927,-379,0,-26.67
1928,-381,0,-26.09
1930,-382,-49,-25.51
1931,-384,-33,-19
1932,-386,-26,-18.49
1933,-388,-18,-17.98
1935,-390,21,-17.47
1936,-392,13,-18.01
1937,-394,16,-17.55
1938,-396,13,-17.09
1940,-398,9,-16.63
1941,-400,4,-14.19
1942,-402,2,-13.75
1943,-403,1,-13.31
1945,-405,-34,-12.87
1946,-406,-25,-5.54
1947,-408,-12,-5.21
1948,-409,-10,-4.88
1950,-411,33,-4.55
1951,-412,19,-1.27
1952,-414,23,-0.99
1953,-415,19,-0.71
1955,-417,6,7.49
1956,-418,8,7.65
1957,-419,-31,7.81
1958,-420,-27,13.91
1960,-420,-23,14
1961,-421,-6,14.09
1962,-421,33,14.18
1963,-422,21,14.23
1965,-422,21,18.24
1966,-422,25,18.25
1967,-422,-14,18.26
1968,-422,-30,18.27
1970,-422,-13,18.28
1971,-422,-12,29.18
1972,-421,-8,29.08
1973,-420,-3,28.98
1975,-419,1,28.88
1976,-418,2,34.7
1977,-417,2,34.52
1978,-415,38,34.34
1980,-413,28,34.16
1981,-410,18,42.84
1982,-408,4,42.52
1983,-405,-1,42.2
1985,-403,-2,41.88
1986,-400,-2,48.49
1987,-397,-4,48.1
1988,-394,-1,47.71
1990,-391,-41,47.32
1991,-388,-27,56.8
1992,-384,-17,56.28
1993,-381,24,55.76
1995,-378,21,55.24
1996,-374,15,64.62
1997,-371,10,64
1998,-368,8,63.38
2000,-365,8,62.76
2001,-362,-5,69.99
2002,-359,-49,69.22
2003,-356,-44,68.45
2005,-353,-31,67.68
2006,-349,-23,75.8
2007,-346,-12,74.92
2008,-343,-21,74.04
2010,-340,-8,73.16
2011,-337,-18,79.2
2012,-333,-7,78.24
2013,-330,-11,77.28
2015,-327,-7,76.32
2016,-323,-2,81.25
2017,-320,2,80.18
2018,-316,14,79.11
2020,-313,23,78.04
2021,-309,24,88.84
2022,-306,32,87.64
2023,-303,26,86.44
2025,-300,23,85.24
2026,-297,15,90.9
2027,-294,17,89.56
2028,-291,9,88.22
2030,-287,3,86.88
2031,-284,-6,97.47
2032,-281,-9,96.06
2033,-278,-5,94.65
2035,-276,-14,93.24
2036,-273,-17,93.76
2037,-270,-14,92.28
2038,-267,19,90.8
2040,-264,25,89.32
2041,-261,23,98.72
2042,-259,20,97.12
2043,-256,16,95.52
2045,-254,6,93.92
2046,-251,6,96.29
2047,-249,1,94.66
2048,-247,-5,93.03
2050,-244,-43,91.4
2051,-242,-25,98.65
2052,-239,-16,96.9
2053,-237,-9,95.15
2055,-235,35,93.4
2056,-233,29,98.64
2057,-231,29,96.88
2058,-229,21,95.12
2060,-227,20,93.36
2061,-225,18,93.57
2062,-223,3,91.78
2063,-221,1,89.99
2065,-220,-38,88.2
2066,-219,-32,94.35
2067,-217,-22,92.5
2068,-216,-28,90.65
2070,-214,20,88.8
2071,-212,14,92.96
2072,-211,9,91.12
2073,-209,10,89.28
2075,-207,9,91.4
2076,-206,3,89.55
2077,-204,-27,87.7
2078,-203,-37,90.8
2080,-202,-33,88.98
2081,-200,-21,87.16
2082,-199,25,85.34
2083,-198,19,83.58
2085,-197,19,81.82
2086,-196,9,80.06
2087,-194,20,78.3
2088,-193,12,76.54
2090,-192,7,74.82
2091,-191,3,77.06
2092,-189,3,75.3
2093,-188,5,73.54
2095,-187,-43,71.78
2096,-187,-29,75.08
2097,-186,-11,73.38
2098,-185,22,71.68
2100,-184,18,69.98
2101,-183,15,69.33
2102,-183,11,67.68
2103,-182,15,66.03
2105,-181,7,64.38
2106,-180,0,61.83
2107,-179,-1,60.28
2108,-178,0,58.73
2110,-178,-34,57.18
2111,-177,-26,57.68
2112,-176,-20,56.18
2113,-175,20,54.68
2115,-174,14,53.18
2116,-174,16,53.76
2117,-173,11,52.34
2118,-173,11,50.92
2120,-172,6,49.5
2121,-172,2,48.18
2122,-171,-2,46.86
2123,-171,-1,45.54
2125,-171,-56,44.22
2126,-170,-43,44.96
2127,-170,-27,43.7
2128,-170,23,42.44
2130,-170,21,41.18
2131,-170,21,36.05
2132,-169,-15,34.92
2133,-169,27,33.79
2135,-168,19,32.66
2136,-167,-33,32.59
2137,-166,-24,31.52
2138,-165,-20,30.45
2140,-164,-27,29.38
2141,-163,-10,27.38
2142,-162,2,26.38
2143,-161,1,25.38
2145,-160,5,24.38
2146,-160,14,25.48
2147,-159,17,24.58
2148,-159,12,23.68
2150,-159,11,22.78
2151,-159,16,22.94
2152,-159,12,22.1
2153,-159,11,21.26
2155,-160,14,20.42
2156,-160,9,18.71
2157,-161,8,18
2158,-161,5,17.29
2160,-161,-5,16.58
2161,-161,-8,13.91
2162,-161,-2,13.24
2163,-161,-15,12.57
2165,-161,-6,11.9
2166,-161,-13,9.36
2167,-160,-7,8.82
2168,-159,-11,8.28
2170,-159,-16,7.74
2171,-158,-8,9.22
2172,-158,-6,8.7
2173,-158,15,8.18
2175,-158,29,7.66
2176,-157,26,4.26
2177,-157,21,3.86
2178,-156,16,3.46
2180,-155,12,3.06
2181,-155,6,4.71
2182,-154,2,4.36
2183,-154,0,4.01
2185,-153,-63,3.66
2186,-153,-29,1.35
2187,-153,-21,1.04
2188,-153,-16,0.73
2190,-153,26,0.42
2191,-152,27,-1.79
2192,-152,27,-2
2193,-152,25,-2.21
2195,-152,16,-2.42
2196,-152,11,-1.58
2197,-152,10,-1.74
2198,-152,3,-1.9
2200,-152,-39,-2.02
2201,-152,-14,-8.08
2202,-151,-12,-8.14
2203,-151,-14,-8.15
2205,-151,32,-8.16
2206,-150,20,-2.23
2207,-150,22,-2.3
2208,-149,19,-2.37
2210,-149,8,-3.43
2211,-148,0,-3.49
2212,-148,-30,-3.55
2213,-147,-33,-4.6
2215,-147,-30,-4.65
2216,-147,-23,-4.66
2217,-146,19,-4.67
2218,-146,18,-4.68
2220,-146,18,-3.7
2221,-145,10,-3.67
2222,-145,3,-3.64
2223,-144,-37,-3.61
2225,-143,-38,-3.58
2226,-143,-25,-4.53
2227,-143,-22,-4.48
2228,-143,-17,-4.43
2230,-143,-2,-4.38
2231,-142,0,-8.3
2232,-142,6,-8.22
2233,-142,43,-8.14
2235,-141,36,-8.06
2236,-140,29,-4.99
2237,-140,22,-4.92
2238,-139,16,-4.85
2240,-138,11,-4.78
2241,-138,4,-5.68
2242,-137,-2,-5.58
2243,-136,-9,-5.48
2245,-135,-53,-5.38
2246,-134,-29,-8.25
2247,-133,-20,-8.12
2248,-132,27,-7.99
2250,-132,23,-7.86
2251,-131,11,-6.72
2252,-130,0,-6.58
2253,-130,31,-6.44
2255,-129,13,-6.3
2256,-128,-18,-3.23
2257,-128,-13,-3.16
2258,-128,-3,-3.09
2260,-128,-6,-3.02
2261,-128,-6,-3.93
2262,-128,-5,-3.84
2263,-127,-1,-3.75
2265,-127,2,-3.66
2266,-127,0,-2.59
2267,-127,-4,-2.52
2268,-127,3,-2.45
2270,-127,11,-2.38
2271,-127,10,0.68
2272,-127,1,0.74
2273,-127,5,0.8
2275,-128,4,0.86
2276,-128,3,-2.04
2277,-128,0,-1.94
2278,-128,-5,-1.84
2280,-129,-13,-1.74
2281,-129,-12,-5.61
2282,-130,-10,-5.48
2283,-131,-10,-5.35
2285,-132,0,-5.22
2286,-134,-12,-4.12
2287,-136,-11,-4.02
2288,-137,5,-3.92
2290,-139,4,-3.82
2291,-141,0,-4.73
2292,-143,2,-4.64
2293,-145,37,-4.55
2295,-147,31,-4.46
2296,-149,18,-7.32
2297,-151,13,-7.18
2298,-152,10,-7.04
2300,-153,6,-6.9
2301,-155,2,-9.76
2302,-156,-3,-9.62
2303,-157,-6,-9.48
2305,-158,-36,-9.34
2306,-159,-40,-9.18
2307,-161,-29,-9.02
2308,-162,-20,-8.86
2310,-163,25,-8.7
2311,-164,26,-12.52
2312,-165,26,-12.34
2313,-166,23,-12.16
2315,-166,20,-11.98
2316,-166,17,-14.79
2317,-167,6,-14.6
2318,-167,-2,-14.41
2320,-167,-27,-14.22
2321,-167,-24,-16
2322,-167,-22,-15.78
2323,-167,-20,-15.56
2325,-166,12,-15.34
2326,-165,18,-19.14
2327,-164,19,-18.94
2328,-163,18,-18.74
2330,-161,12,-19.53
2331,-158,9,-19.26
2332,-155,-33,-18.99
2333,-152,-28,-18.72
2335,-148,-19,-16.48
2336,-145,-4,-16.24
2337,-141,5,-16
2338,-137,29,-15.77
2340,-133,28,-23.46
2341,-130,29,-23.15
2342,-127,19,-22.84
2343,-124,5,-22.53
2345,-121,-29,-22.21
2346,-119,-17,-21.89
2347,-117,-19,-21.57
2348,-116,-14,-21.25
2350,-115,-9,-20.93
2351,-114,-5,-21.61
2352,-114,-11,-21.29
2353,-114,32,-20.97
2355,-114,23,-20.65
2356,-114,17,-26.31
2357,-115,14,-25.97
2358,-115,8,-25.63
2360,-116,8,-25.29
2361,-117,2,-22.94
2362,-118,-1,-22.59
2363,-119,1,-22.24
2365,-120,-37,-21.89
2366,-121,-20,-25.51
2367,-122,-16,-25.13
2368,-122,-9,-24.75
2370,-123,23,-24.37
2371,-124,17,-30.95
2372,-124,19,-30.53
2373,-125,21,-30.11
2375,-125,10,-29.69
2376,-126,-2,-28.27
2377,-127,-26,-27.85
2378,-128,-22,-27.43
2380,-128,-16,-27.01
2381,-129,-9,-32.5
2382,-130,2,-31.99
2383,-131,-4,-31.48
2385,-131,2,-30.97
2386,-132,0,-33.44
2387,-133,8,-32.91
2388,-134,6,-32.38
2390,-135,3,-31.85
2391,-136,9,-35.27
2392,-136,0,-34.69
2393,-136,7,-34.11
2395,-136,1,-33.53
2396,-136,2,-33.91
2397,-136,-7,-33.29
2398,-136,-13,-32.67
2400,-136,-8,-32.05
2401,-136,-16,-34.43
2402,-136,-5,-33.81
2403,-136,-15,-33.19
2405,-136,-9,-32.57
2406,-135,-3,-34.96
2407,-135,6,-34.35
2408,-135,6,-33.74
2410,-135,13,-33.13
2411,-135,10,-36.47
2412,-135,7,-35.81
2413,-135,47,-35.15
2415,-136,36,-34.49
2416,-136,26,-39.78
2417,-136,14,-39.07
2418,-136,8,-38.36
2420,-136,-1,-37.65
2421,-136,-8,-35.98
2422,-136,-14,-35.31
2423,-136,-10,-34.64
2425,-136,-52,-33.97
2426,-136,-36,-36.3
2427,-136,-16,-35.63
2428,-136,-11,-34.96
2430,-137,28,-34.29
2431,-137,26,-30.65
2432,-137,20,-30.01
2433,-138,23,-29.37
2435,-138,16,-28.73
2436,-138,5,-33.08
2437,-139,-1,-32.43
2438,-139,-7,-31.78
2440,-140,-40,-31.13
2441,-140,-42,-32.49
2442,-141,-30,-31.85
2443,-141,-19,-31.21
2445,-141,28,-30.57
2446,-142,20,-32.92
2447,-141,20,-32.27
2448,-141,20,-31.62
2450,-141,12,-32.95
2451,-141,10,-32.32
2452,-140,-37,-31.69
2453,-140,-42,-31.06
2455,-139,-34,-26.48
2456,-139,-18,-25.9
2457,-139,30,-25.32
2458,-138,26,-24.74
2460,-138,26,-26.12
2461,-138,32,-25.5
2462,-138,-2,-24.88
2463,-138,-31,-24.26
2465,-138,-30,-23.72
2466,-138,-23,-28.13
2467,-138,-21,-27.54
2468,-138,-15,-26.95
2470,-138,-1,-26.36
2471,-138,1,-26.76
2472,-137,4,-26.16
2473,-137,42,-25.56
2475,-137,33,-24.96
2476,-136,28,-25.36
2477,-135,21,-24.76
2478,-135,15,-24.16
2480,-134,10,-23.56
2481,-134,5,-25
2482,-133,0,-24.44
2483,-132,-3,-23.88
2485,-132,-55,-23.32
2486,-131,-30,-27.69
2487,-131,-22,-27.06
2488,-130,22,-26.43
2490,-129,21,-25.8
2491,-129,21,-24.22
2492,-128,19,-23.64
2493,-128,19,-23.06
2495,-128,11,-22.48
2496,-128,5,-27.91
2497,-127,-1,-27.34
2498,-127,-6,-26.77
2500,-127,-50,-26.2
2501,-127,-35,-27.6
2502,-127,-11,-27
2503,-127,-4,-26.4
2505,-127,-7,-25.8
2506,-127,3,-26.25
2507,-126,38,-25.7
2508,-124,56,-25.15
2510,-122,25,-24.6
2511,-118,3,-20.12
2512,-113,3,-19.64
2513,-107,-1,-19.16
2515,-100,-3,-18.68
2516,-94,-5,-20.22
2517,-87,-6,-19.76
2518,-82,-1,-19.3
2520,-76,1,-18.84
2521,-73,-7,-19.38
2522,-73,-6,-18.92
2523,-75,-9,-18.46
2525,-78,-2,-18
2526,-81,4,-19.55
2527,-83,-5,-19.1
2528,-86,1,-18.65
2530,-87,8,-18.2
2531,-82,-5,-12.83
2532,-70,4,-12.46
2533,-53,-4,-12.09
2535,-32,0,-11.72
2536,1,-5,-13.37
2537,44,5,-13.02
2538,95,31,-12.67
2540,151,20,-12.32
2541,221,10,-12.03
2542,300,8,-11.74
2543,387,-3,-11.45
2545,479,-37,-11.16
2546,578,-34,-13.83
2547,681,-41,-13.5
2548,787,-15,-13.17
2550,894,21,-12.84
2551,997,20,-13.53
2552,1096,18,-13.22
2553,1189,19,-12.91
2555,1276,14,-12.6
2556,1349,11,-13.25
2557,1411,6,-12.9
2558,1460,-1,-12.55
2560,1500,-34,-12.2
2561,1524,-28,-11.9
2562,1535,-12,-11.6
2563,1534,-6,-11.3
2565,1523,32,-11
2566,1500,26,-11.71
2567,1466,26,-11.42
2568,1424,21,-11.13
2570,1372,9,-11.83
2571,1313,2,-11.56
2572,1248,-31,-11.29
2573,1180,-29,-11.02
2575,1107,-22,-11.76
2576,1030,-12,-11.5
2577,952,19,-11.24
2578,874,13,-10.98
2580,795,11,-10.68
2581,717,15,-11.37
2582,640,-21,-11.06
2583,565,-34,-10.75
2585,492,-26,-10.46
2586,421,-26,-12.15
2587,353,-23,-11.84
2588,288,-4,-11.53
2590,226,2,-11.22
2591,167,-2,-12.94
2592,112,3,-12.66
2593,60,46,-12.38
2595,11,34,-12.1
2596,-33,23,-15.79
2597,-75,19,-15.48
2598,-113,18,-15.17
2600,-148,16,-14.86
2601,-181,6,-19.51
2602,-210,-3,-19.16
2603,-236,-2,-18.81
2605,-260,-40,-18.46
2606,-281,-25,-19.12
2607,-300,-29,-18.78
2608,-317,17,-18.44
2610,-331,14,-18.1
2611,-344,12,-20.78
2612,-354,12,-20.46
2613,-363,13,-20.14
2615,-370,7,-19.82
2616,-376,4,-23.45
2617,-380,-2,-23.08
2618,-383,-3,-22.71
2620,-385,-57,-22.34
2621,-385,-41,-23.02
2622,-385,-36,-22.7
2623,-384,-30,-22.38
2625,-382,32,-22.06
2626,-380,-21,-24.73
2627,-377,18,-24.4
2628,-374,25,-24.07
2630,-370,-14,-23.74
2631,-367,-4,-27.38
2632,-363,-5,-27.02
2633,-360,2,-26.66
2635,-357,12,-26.3
2636,-354,14,-26.89
2637,-351,13,-26.48
2638,-348,15,-26.07
2640,-345,5,-25.66
2641,-342,3,-30.22
2642,-339,6,-29.78
2643,-335,2,-29.34
2645,-332,4,-28.9
2646,-329,5,-31.44
2647,-325,10,-30.98
2648,-322,8,-30.52
2650,-319,9,-30.06
2651,-315,9,-30.61
2652,-313,9,-30.16
2653,-310,2,-29.71
2655,-308,0,-29.26
2656,-306,3,-30.74
2657,-304,0,-30.22
2658,-303,-4,-29.7
2660,-302,2,-29.18
2661,-300,-2,-33.63
2662,-299,-1,-33.08
2663,-297,-4,-32.53
2665,-296,-5,-31.98
2666,-294,-1,-29.45
2667,-293,3,-28.92
2668,-291,37,-28.39
2670,-289,32,-27.86
2671,-286,20,-27.36
2672,-284,17,-26.86
2673,-281,6,-26.36
2675,-279,6,-25.86
2676,-276,-6,-25.37
2677,-273,-6,-24.88
2678,-271,-44,-24.39
2680,-268,-38,-23.9
2681,-265,-22,-23.42
2682,-262,-19,-22.94
2683,-260,-14,-22.46
2685,-257,19,-21.98
2686,-255,21,-22.49
2687,-252,21,-22
2688,-250,12,-21.51
2690,-247,11,-21.02
2691,-245,4,-20.54
2692,-242,1,-20.06
2693,-239,-2,-19.58
2695,-237,-54,-19.11
2696,-234,-44,-20.62
2697,-231,-31,-20.13
2698,-229,-14,-19.64
2700,-226,33,-19.16
2701,-223,24,-15.71
2702,-221,24,-15.26
2703,-219,19,-14.81
2705,-217,14,-13.37
2706,-215,12,-12.94
2707,-213,-45,-12.51
2708,-211,-48,-12.08
2710,-209,-24,-12.64
2711,-208,-17,-12.22
2712,-206,33,-11.8
2713,-205,32,-11.38
2715,-204,26,-10.96
2716,-203,30,-7.59
2717,-202,31,-7.22
2718,-202,19,-6.85
2720,-201,7,-6.48
2721,-201,12,-11.1
2722,-201,6,-10.72
2723,-200,2,-10.34
2725,-200,-40,-9.96
2726,-199,-27,-5.67
2727,-198,-19,-5.38
2728,-197,26,-5.09
2730,-196,15,-4.8
2731,-195,12,-7.49
2732,-194,8,-7.18
2733,-193,12,-6.87
2735,-191,4,-6.56
2736,-190,-39,-5.29
2737,-189,-30,-5.02
2738,-188,-32,-4.75
2740,-186,-21,-4.48
2741,-186,-17,-7.22
2742,-186,-16,-6.96
2743,-186,31,-6.7
2745,-186,30,-6.44
2746,-186,25,-4.21
2747,-186,19,-3.98
2748,-186,17,-3.75
2750,-186,9,-3.52
2751,-186,-11,-4.31
2752,-186,-41,-4.1
2753,-185,-25,-3.89
2755,-185,-26,-3.68
2756,-185,-14,-1.53
2757,-185,-14,-1.38
2758,-185,3,-1.23
2760,-185,4,-1.08
2761,-185,10,0.05
2762,-185,4,0.18
2763,-185,9,0.31
2765,-185,9,0.44
2766,-185,12,5.47
2767,-186,7,5.5
2768,-186,-4,5.53
2770,-187,7,5.56
2771,-187,6,5.56
2772,-188,3,5.56
2773,-189,1,5.56
2775,-190,-2,5.56
2776,-190,3,9.51
2777,-191,9,9.46
2778,-192,1,9.41
2780,-192,2,9.36
2781,-193,1,11.27
2782,-193,0,11.18
2783,-194,-5,11.09
2785,-194,2,11
2786,-195,0,17.79
2787,-195,-11,17.58
2788,-195,26,17.37
2790,-196,20,17.16
2791,-196,11,20.93
2792,-197,11,20.7
2793,-197,6,20.47
2795,-198,4,20.24
2796,-199,2,26.94
2797,-200,-1,26.64
2798,-200,-1,26.34
2800,-201,-38,26.04
2801,-201,-25,32.67
2802,-202,-12,32.3
2803,-203,-10,31.93
2805,-203,26,31.56
2806,-204,28,38.12
2807,-204,26,37.68
2808,-204,21,37.24
2810,-204,21,36.8
2811,-204,16,45.26
2812,-204,12,44.72
2813,-203,5,44.18
2815,-203,-36,43.64
2816,-203,-24,51.02
2817,-203,-22,50.4
2818,-203,-20,49.78
2820,-203,19,49.16
2821,-202,7,56.44
2822,-202,8,55.72
2823,-201,8,55
2825,-199,3,60.22
2826,-198,-2,59.47
2827,-196,-49,58.72
2828,-193,-44,57.97
2830,-191,-33,69.11
2831,-188,-23,68.25
2832,-184,28,67.39
2833,-181,30,66.53
2835,-178,28,65.66
2836,-174,26,79.64
2837,-170,-6,78.62
2838,-166,-27,77.6
2840,-163,-23,76.58
2841,-159,-24,84.5
2842,-154,-13,83.42
2843,-150,-15,82.34
2845,-146,-1,81.26
2846,-142,-1,92.01
2847,-137,-4,90.76
2848,-133,40,89.51
2850,-128,34,88.26
2851,-123,27,98.93
2852,-119,22,97.6
2853,-114,17,96.27
2855,-109,12,94.94
2856,-104,6,103.48
2857,-99,0,102.02
2858,-95,-7,100.56
2860,-90,-52,99.1
2861,-85,-36,108.54
2862,-80,-30,106.98
2863,-75,27,105.42
2865,-70,22,103.86
2866,-65,21,115.14
2867,-61,22,113.42
2868,-56,33,111.7
2870,-52,23,109.98
2871,-48,22,120.16
2872,-44,18,118.34
2873,-40,1,116.52
2875,-36,-40,114.7
2876,-32,-31,124.75
2877,-29,-28,122.8
2878,-25,-35,120.85
2880,-21,-31,118.9
2881,-18,-24,125.88
2882,-14,-4,123.86
2883,-10,19,121.84
2885,-6,-22,119.82
2886,-2,-5,128.7
2887,1,4,126.58
2888,4,3,124.46
2890,8,3,122.34
2891,11,-4,126.21
2892,14,-5,124.08
2893,16,7,121.95
2895,19,-8,119.82
2896,21,3,129.57
2897,23,15,127.32
2898,25,3,125.07
2900,27,12,122.82
2901,29,16,120.61
2902,30,10,120.38
2903,32,14,118.15
2905,34,13,115.92
2906,36,11,113.71
2907,39,13,120.41
2908,41,10,118.11
2910,45,3,115.81
2911,48,-11,113.58
2912,51,37,116.3
2913,54,30,114.02
2915,57,23,111.74
2916,61,10,109.5
2917,63,7,109.24
2918,66,-1,106.98
2920,68,-44,104.72
2921,70,-38,102.53
2922,72,-34,105.29
2923,74,-24,103.05
2925,76,17,100.81
2926,78,15,98.64
2927,80,16,94.49
2928,81,15,92.34
2930,83,11,90.19
2931,84,8,88.11
2932,86,3,92.96
2933,87,-1,90.81
2935,88,-54,88.66
2936,89,-40,86.6
2937,90,-29,82.56
2938,90,-29,80.52
2940,91,31,78.48
2941,91,29,76.52
2942,91,28,79.51
2943,92,31,77.5
2945,92,23,75.49
2946,92,13,73.56
2947,92,11,68.66
2948,91,-37,66.76
2950,91,-23,64.92
2951,90,-26,63.08
2952,90,-16,61.24
2953,90,-16,59.4
2955,89,24,57.68
2956,89,22,52
2957,89,23,50.32
2958,89,16,48.64
2960,89,10,50.92
2961,89,-6,49.35
2962,89,-45,47.78
2963,90,-39,46.21
2965,91,-30,43.65
2966,91,-30,42.18
2967,92,32,40.71
2968,93,34,39.24
2970,94,31,37.77
2971,95,29,35.43
2972,96,23,34.09
2973,98,16,32.75
2975,99,8,31.41
2976,100,1,30.19
2977,102,0,26
2978,103,1,24.81
2980,103,-49,23.62
2981,104,-32,22.53
2982,105,-29,21.44
2983,105,21,20.35
2985,105,20,19.26
2986,104,20,18.28
2987,104,19,16.31
2988,104,19,15.34
2990,103,12,14.37
2991,103,8,13.53
2992,103,2,10.71
2993,103,4,9.89
2995,102,-30,9.07
2996,102,-25,8.37
2997,102,-6,7.67
2998,102,30,6.97
3000,102,27,6.27
3001,102,23,5.69
3002,102,-21,-0.83
3003,103,23,-1.35
3005,103,-35,-1.87
3006,103,-35,-2.3
3007,104,-26,-1.74
3008,104,-27,-2.18
3010,105,-11,-2.62
3011,105,-10,-8.89
3012,106,-13,-9.16
3013,106,-4,-9.43
3015,107,-10,-9.7
3016,108,-15,-9.91
3017,108,-2,-8.14
3018,108,-4,-8.37
3020,109,-2,-8.6
3021,109,6,-8.71
3022,109,6,-10.8
3023,109,10,-10.89
3025,109,15,-10.98
3026,109,14,-11.07
3027,109,12,-15.1
3028,109,1,-15.13
3030,109,-3,-15.16
3031,109,-6,-15.19
3032,109,-6,-16.12
3033,109,-7,-16.05
3035,109,5,-15.98
3036,109,-1,-15.91
3037,109,11,-17.77
3038,109,13,-17.63
3040,110,12,-17.49
3041,110,11,-17.35
3042,111,8,-18.18
3043,111,28,-18.01
3045,112,35,-17.84
3046,112,26,-17.67
3047,112,16,-23.39
3048,113,10,-23.11
3050,113,6,-22.83
3051,114,1,-22.55
3052,114,-5,-18.33
3053,115,-7,-18.11
3055,115,-44,-17.89
3056,115,-33,-17.67
3057,116,-29,-22.33
3058,116,-21,-21.99
3060,117,26,-21.65
3061,118,22,-21.31
3062,119,20,-21.98
3063,119,18,-21.65
3065,120,14,-21.32
3066,120,8,-20.99
3067,120,2,-26.55
3068,121,-3,-26.11
3070,121,-47,-25.67
3071,121,-44,-25.23
3072,121,-36,-25.81
3073,121,-30,-25.39
3075,122,26,-24.97
3076,122,29,-24.55
3077,122,29,-26.11
3078,123,30,-25.67
3080,123,18,-28.2
3081,124,12,-27.77
3082,125,-48,-27.34
3083,126,-51,-26.91
3085,127,-48,-29.41
3086,127,-30,-28.91
3087,128,35,-28.41
3088,129,35,-27.91
3090,130,37,-27.42
3091,131,32,-30.89
3092,132,4,-30.36
3093,133,-38,-29.83
3095,134,-31,-29.3
3096,135,-28,-28.78
3097,136,-11,-26.28
3098,136,-9,-25.78
3100,137,-1,-25.28
3101,138,4,-24.78
3102,139,9,-31.24
3103,139,48,-30.7
3105,139,39,-30.16
3106,139,32,-29.62
3107,139,25,-28.09
3108,139,17,-27.56
3110,139,11,-27.03
3111,139,4,-26.5
3112,138,-1,-26.97
3113,138,-2,-26.44
3115,137,-50,-25.91
3116,136,-40,-25.38
3117,135,-33,-25.86
3118,135,23,-25.34
3120,134,21,-24.82
3121,133,17,-24.3
3122,133,20,-29.72
3123,132,21,-29.14
3125,131,13,-28.56
3126,130,6,-27.98
3127,129,-52,-27.46
3128,128,-48,-26.94
3130,126,-27,-26.42
3131,125,-16,-25.9
3132,123,-4,-27.35
3133,120,-8,-26.8
3135,118,-3,-26.25
3136,115,9,-25.76
3137,113,9,-25.27
3138,110,6,-24.78
3140,107,-4,-24.29
3141,103,12,-23.8
3142,100,2,-26.26
3143,97,4,-25.72
3145,93,11,-25.18
3146,90,11,-24.64
3147,87,12,-25.11
3148,83,5,-24.58
3150,80,5,-24.05
3151,77,5,-23.52
3152,75,9,-24.02
3153,72,-1,-23.52
3155,71,3,-23.02
3156,69,2,-22.52
3157,69,4,-25.99
3158,68,6,-25.46
3160,68,4,-24.93
3161,69,4,-24.4
3162,70,-8,-24.88
3163,71,22,-24.36
3165,72,21,-23.84
3166,73,16,-23.32
3167,75,11,-25.78
3168,77,7,-25.24
3170,78,6,-24.7
3171,80,1,-24.16
3172,82,-1,-23.68
3173,85,-2,-23.2
3175,87,-48,-22.72
3176,90,-32,-22.24
3177,93,-26,-25.68
3178,96,-28,-25.12
3180,99,26,-24.56
3181,103,24,-24
3182,107,24,-25.47
3183,111,23,-24.94
3185,115,16,-24.41
3186,120,11,-23.88
3187,124,8,-26.33
3188,128,-1,-25.78
3190,132,-50,-25.23
3191,135,-37,-24.68
3192,139,-30,-26.17
3193,142,-24,-25.66
3195,144,22,-25.15
3196,147,27,-24.64
3197,149,27,-26.12
3198,151,28,-25.6
3200,153,19,-26.07
3201,154,14,-25.54
3202,155,-36,-25.03
3203,155,-22,-24.52
3205,155,-9,-27.01
3206,156,-14,-26.5
3207,156,-5,-25.99
3208,155,29,-25.48
3210,155,25,-25
3211,155,34,-26.5
3212,155,13,-26
3213,155,-4,-25.5
3215,155,-24,-25
3216,155,-19,-24.54
3217,155,-20,-27.05
3218,155,-14,-26.56
3220,155,-5,-26.07
3221,155,-5,-25.58
3222,155,8,-27.05
3223,154,35,-26.52
3225,153,31,-25.99
3226,152,28,-25.46
3227,152,18,-27.97
3228,151,8,-27.48
3230,151,2,-26.99
3231,150,1,-26.5
3232,149,-3,-28.97
3233,149,-7,-28.44
3235,148,-45,-27.91
3236,148,-36,-27.38
3237,147,-27,-30.82
3238,147,-19,-30.26
3240,146,26,-29.7
3241,145,23,-29.14
3242,144,21,-31.56
3243,144,22,-30.98
3245,143,19,-30.4
3246,142,9,-29.82
3247,141,3,-31.28
3248,141,0,-30.74
3250,140,-41,-30.2
3251,139,-25,-29.66
3252,139,-15,-33.08
3253,138,-19,-32.5
3255,138,-14,-31.92
3256,137,32,-31.34
3257,137,23,-35.73
3258,136,28,-35.12
3260,136,-8,-34.51
3261,136,-4,-33.9
3262,135,-14,-36.26
3263,135,-8,-35.62
3265,134,-6,-34.98
3266,134,-2,-34.34
3267,133,1,-32.74
3268,133,3,-32.14
3270,132,-2,-31.54
3271,132,2,-30.94
3272,131,0,-38.27
3273,131,1,-37.6
3275,131,-4,-36.93
3276,131,2,-36.26
3277,131,-2,-35.6
3278,131,-2,-34.94
3280,131,3,-34.28
3281,130,-4,-33.62
3282,130,-3,-34.98
3283,130,-14,-34.34
3285,129,-16,-33.7
3286,128,-11,-33.06
3287,128,-11,-36.39
3288,128,-15,-35.72
3290,127,-8,-35.05
3291,127,-2,-34.38
3292,127,-5,-38.69
3293,126,2,-38
3295,126,-2,-37.31
3296,126,1,-36.62
3297,125,-2,-36.92
3298,125,34,-36.22
3300,125,38,-35.52
3301,124,33,-34.82
3302,124,24,-36.14
3303,123,19,-35.46
3305,122,14,-34.78
3306,122,7,-34.1
3307,121,1,-39.38
3308,120,6,-38.66
3310,119,-57,-37.94
3311,118,-39,-37.22
3312,118,-31,-36.53
3313,117,-32,-35.84
3315,116,26,-35.15
3316,116,24,-34.46
3317,115,26,-39.73
3318,115,23,-39
3320,114,11,-41.24
3321,113,8,-40.48
3322,113,-52,-39.74
3323,112,-54,-39
3325,111,-37,-43.22
3326,111,-22,-42.44
3327,111,37,-41.66
3328,110,40,-40.88
3330,110,38,-40.13
3331,110,27,-41.36
3332,109,-5,-40.59
3333,109,-31,-39.82
3335,109,-29,-39.05
3336,109,-17,-38.3
3337,108,-13,-38.54
3338,108,-8,-37.78
3340,108,7,-37.02
3341,108,15,-36.26
3342,107,10,-35.53
3343,107,44,-34.8
3345,106,37,-34.07
3346,106,28,-33.34
3347,105,23,-40.55
3348,105,13,-39.76
3350,105,9,-38.97
3351,105,4,-38.18
3352,107,4,-39.4
3353,108,-2,-38.62
3355,111,-33,-37.84
3356,114,-26,-37.06
3357,118,-10,-37.3
3358,123,32,-36.54
3360,128,23,-35.78
3361,134,15,-35.02
3362,139,18,-36.28
3363,143,19,-35.54
3365,146,14,-34.8
3366,148,5,-34.06
3367,148,1,-32.36
3368,146,2,-31.66
3370,143,-43,-30.96
3371,139,-28,-30.26
3372,138,-31,-28.59
3373,138,12,-27.92
3375,141,8,-27.25
3376,145,11,-26.58
3377,158,-31,-26.94
3378,178,17,-26.3
3380,204,-39,-25.66
3381,235,-30,-25.02
3382,280,-22,-25.42
3383,335,-10,-24.82
3385,400,-8,-24.22
3386,471,-1,-23.62
3387,553,4,-24.04
3388,643,-9,-23.46
3390,739,8,-22.88
3391,839,9,-22.3
3392,941,13,-22.7
3393,1044,15,-22.1
3395,1147,15,-21.5
3396,1248,19,-20.9
3397,1340,17,-16.42
3398,1424,12,-15.94
3400,1500,11,-15.46
3401,1568,8,-14.98
3402,1622,7,-14.5
3403,1663,3,-14.02
3405,1693,-1,-13.54
3406,1713,-2,-13.06
3407,1719,0,-15.57
3408,1712,1,-15.08
3410,1694,-4,-14.59
3411,1667,-4,-14.1
3412,1631,-1,-8.7
3413,1586,-3,-8.3
3415,1534,-5,-7.9
3416,1478,-13,-7.5
3417,1414,-5,-12.1
3418,1346,20,-11.7
3420,1275,28,-11.3
3421,1202,15,-10.9
3422,1126,13,-12.49
3423,1049,1,-12.08
3425,972,2,-11.67
3426,895,-3,-11.26
3427,819,-7,-15.82
3428,745,-7,-15.38
3430,672,-54,-14.94
3431,602,-41,-14.5
3432,535,-29,-14.12
3433,469,-25,-13.74
3435,407,26,-13.36
3436,348,27,-12.98
3437,292,26,-13.59
3438,240,26,-13.2
3440,191,20,-12.81
3441,145,14,-12.42
3442,102,11,-10.11
3443,63,8,-9.8
3445,27,-30,-9.52
3446,-5,-19,-9.24
3447,-35,-13,-13.91
3448,-62,10,-13.58
3450,-86,20,-13.3
3451,-108,10,-13.02
3452,-127,4,-13.73
3453,-143,2,-13.44
3455,-157,-3,-15.13
3456,-169,-9,-14.84
3457,-180,-78,-14.55
3458,-188,-59,-14.26
3460,-195,-55,-18.92
3461,-201,-42,-18.58
3462,-205,36,-18.25
3463,-208,27,-17.92
3465,-209,26,-17.59
3466,-210,34,-19.24
3467,-210,16,-18.89
3468,-210,-44,-18.54
3470,-208,-31,-18.19
3471,-207,-29,-17.84
3472,-204,-29,-20.54
3473,-202,-9,-20.24
3475,-200,-4,-19.94
3476,-197,9,-19.64
3477,-195,4,-18.37
3478,-192,56,-18.1
3480,-190,56,-17.83
3481,-187,47,-17.56
3482,-185,34,-20.27
3483,-183,28,-19.98
3485,-181,19,-19.69
3486,-179,12,-19.4
3487,-177,3,-22.1
3488,-175,2,-21.8
3490,-173,-44,-21.5
3491,-171,-33,-21.2
3492,-169,-18,-23.86
3493,-168,-12,-23.52
3495,-166,35,-23.18
3496,-165,6,-22.84
3497,-163,45,-22.49
3498,-162,38,-22.14
3500,-161,28,-21.79
3501,-159,21,-21.44
3502,-158,-19,-24.07
3503,-157,-20,-23.7
3505,-156,-21,-23.33
3506,-155,-19,-22.96
3507,-155,-12,-20.62
3508,-154,-18,-20.28
3510,-154,-5,-19.94
3511,-153,-1,-19.6
3512,-153,2,-21.25
3513,-152,1,-20.9
3515,-152,6,-20.55
3516,-151,-4,-20.2
3517,-151,-3,-21.84
3518,-150,2,-21.48
3520,-150,1,-21.12
3521,-149,2,-20.76
3522,-149,3,-19.37
3523,-149,0,-18.98
3525,-149,1,-18.59
3526,-149,-1,-18.2
3527,-149,5,-19.79
3528,-149,-5,-19.38
3530,-149,-4,-18.97
3531,-149,2,-18.56
3532,-149,1,-17.19
3533,-148,2,-16.82
3535,-147,1,-16.45
3536,-146,1,-16.08
3537,-145,1,-16.65
3538,-143,32,-16.22
3540,-142,31,-15.79
3541,-140,17,-15.36
3542,-139,14,-17.95
3543,-137,8,-17.54
3545,-135,0,-17.13
3546,-134,-3,-16.72
3547,-133,-7,-14.35
3548,-131,-6,-13.98
3550,-130,-53,-13.61
3551,-128,-48,-13.24
3552,-127,-30,-11.93
3553,-126,-19,-11.62
3555,-126,21,-11.31
3556,-125,23,-11
3557,-124,24,-11.68
3558,-123,25,-11.36
3560,-122,19,-11.04
3561,-122,11,-10.72
3562,-121,8,-9.42
3563,-120,1,-9.12
3565,-119,-32,-8.82
3566,-117,-26,-8.52
3567,-116,-17,-8.2
3568,-115,10,-7.88
3570,-114,22,-7.56
3571,-113,18,-7.24
3572,-111,18,-4.99
3573,-110,12,-4.74
3575,-109,5,-5.48
3576,-108,0,-5.22
3577,-107,-48,-4.97
3578,-106,-43,-4.72
3580,-104,-31,-4.49
3581,-103,-21,-4.26
3582,-103,29,-4.03
3583,-102,27,-3.8
3585,-101,26,-3.62
3586,-101,26,-3.44
3587,-100,18,-3.26
3588,-100,12,-3.08
3590,-99,5,-2.9
3591,-99,-1,-2.74
3592,-99,0,-2.58
3593,-99,-2,-2.42
3595,-99,-50,-2.26
3596,-99,-42,-2.1
3597,-99,-25,-1.97
3598,-99,22,-1.84
3600,-100,23,-1.71
3601,-100,20,-1.58
3602,-101,20,-0.45
3603,-101,21,-0.32
3605,-102,12,-0.19
3606,-102,7,-0.06
3607,-102,-40,1.03
3608,-103,-17,1.12
3610,-103,-12,1.21
3611,-104,-12,1.3
3612,-105,-1,2.35
3613,-105,38,2.4
3615,-106,31,2.45
3616,-107,26,2.5
3617,-108,19,6.48
3618,-109,9,6.46
3620,-110,2,6.44
3621,-110,3,6.42
3622,-111,-8,11.35
3623,-112,-8,11.28
3625,-113,-38,11.21
3626,-113,-28,11.14
3627,-114,-19,14.01
3628,-115,21,13.88
3630,-117,20,13.75
3631,-118,13,13.62
3632,-119,-23,16.48
3633,-120,19,16.34
3635,-121,14,16.2
3636,-122,3,16.06
3637,-123,-23,22.83
3638,-125,-23,22.6
3640,-126,-16,22.37
3641,-127,-11,22.14
3642,-129,-5,27.83
3643,-130,-17,27.52
3645,-131,-5,27.21
3646,-132,-4,26.9
3647,-133,-3,36.5
3648,-133,4,36.1
3650,-134,5,35.7
3651,-134,3,35.3
3652,-133,4,42.8
3653,-133,-3,42.3
3655,-132,9,41.8
3656,-132,4,41.3
3657,-131,8,50.71
3658,-130,-3,50.12
3660,-130,3,49.53
3661,-129,-5,48.94
3662,-128,-3,58.24
3663,-127,0,57.54
3665,-126,5,56.84
3666,-124,3,56.14
3667,-123,7,63.33
3668,-122,2,62.52
3670,-120,3,61.71
3671,-119,2,60.9
3672,-117,0,70.01
3673,-115,-2,69.12
3675,-113,28,68.23
3676,-111,29,67.34
3677,-109,20,76.36
3678,-106,15,75.38
3680,-103,10,74.4
3681,-100,1,73.42
3682,-97,-1,83.32
3683,-93,-1,82.22
3685,-89,-41,81.12
3686,-85,-31,80.02
3687,-81,-21,90.81
3688,-77,-28,89.6
3690,-73,32,88.39
3691,-69,24,87.18
3692,-65,22,97.85
3693,-60,22,96.52
3695,-56,9,95.19
3696,-51,7,93.86
3697,-47,0,102.45
3698,-42,-6,101.04
3700,-37,-51,99.62
3701,-32,-47,98.2
3702,-28,-40,108.66
3703,-23,-45,107.12
3705,-19,21,105.58
3706,-15,27,104.04
3707,-11,30,111.41
3708,-7,36,109.78
3710,-3,34,120.03
3711,0,22,118.28
3712,4,-10,116.53
3713,8,-13,114.78
3715,12,-14,113.03
3716,16,-21,119.2
3717,20,24,117.37
3718,23,15,115.54
3720,26,15,113.71
3721,30,14,119.8
3722,33,-17,117.89
3723,36,-33,115.98
3725,39,-27,114.07
3726,41,-15,112.16
3727,44,-8,115.21
3728,47,-7,113.26
3730,49,-7,111.31
3731,51,-3,109.36
3732,54,-6,115.34
3733,56,-9,113.32
3735,59,32,111.3
3736,61,27,109.28
3737,64,24,111.23
3738,67,21,109.18
3740,70,13,107.13
3741,73,9,105.08
3742,76,7,112.97
3743,79,0,110.86
3745,81,-37,108.75
3746,84,-27,106.64
3747,87,-12,107.55
3748,89,-1,105.46
3750,92,22,103.37
3751,95,27,101.28
3752,97,-23,106.15
3753,99,29,104.02
3755,102,23,101.89
3756,104,-17,99.76
3757,106,-16,101.62
3758,108,-21,99.48
3760,110,-20,97.34
3761,112,-9,95.2
3762,114,-3,97.09
3763,115,-10,94.98
3765,117,8,92.87
3766,118,-13,90.76
3767,119,-8,94.65
3768,120,-3,92.54
3770,121,6,90.43
3771,122,2,88.32
3772,123,9,86.31
3773,123,-5,84.3
3775,124,3,82.29
3776,124,4,80.28
3777,124,10,77.36
3778,125,3,75.44
3780,126,1,73.52
3781,126,2,71.6
3782,127,10,74.73
3783,128,10,72.86
3785,128,8,70.99
3786,129,5,69.12
3787,130,10,68.34
3788,131,7,66.56
3790,131,12,64.78
3791,132,5,63
3792,133,8,61.3
3793,133,4,59.6
3795,134,37,57.9
3796,134,31,56.2
3797,135,28,57.57
3798,135,17,55.94
3800,136,12,54.31
3801,136,4,52.68
3802,136,-10,47.19
3803,137,-10,45.7
3805,138,-40,44.21
3806,138,-31,42.72
3807,139,-27,41.34
3808,140,-21,39.96
3810,140,22,38.58
3811,141,22,37.2
3812,141,11,34.95
3813,142,10,33.7
3815,143,4,32.45
3816,144,1,31.2
3817,144,-5,30.07
3818,145,-6,28.94
3820,146,-50,27.81
3821,147,-45,26.68
3822,147,-26,22.68
3823,149,-16,21.68
3825,150,24,20.68
3826,151,23,19.68
3827,152,24,19.79
3828,154,25,18.9
3830,155,17,18.01
3831,156,10,17.12
3832,158,4,14.34
3833,159,-1,13.56
3835,161,-49,12.9
3836,162,-44,12.24
3837,163,-31,8.61
3838,165,-28,7.98
3840,166,30,7.35
3841,168,27,6.8
3842,169,27,3.28
3843,170,25,2.76
3845,171,21,2.24
3846,172,13,-1.17
3847,173,-44,-1.58
3848,174,-33,-1.99
3850,175,-34,-2.4
3851,176,-24,-2.81
3852,177,28,-3.17
3853,178,27,-3.53
3855,179,30,-3.89
3856,180,29,-9.2
3857,181,22,-9.43
3858,182,15,-9.66
3860,183,7,-9.89
3861,183,2,-10.12
3862,183,1,-15.26
3863,184,-3,-15.4
3865,185,-41,-15.54
3866,185,-39,-15.68
3867,186,-21,-17.7
3868,186,-17,-17.72
3870,186,25,-17.74
3871,186,23,-17.76
3872,186,24,-17.75
3873,186,24,-17.74
3875,186,23,-17.73
3876,186,-50,-17.72
3877,186,-25,-22.59
3878,186,-12,-22.46
3880,186,-11,-22.33
3881,186,6,-22.2
3882,186,10,-25
3883,186,0,-24.8
3885,186,2,-24.6
3886,186,-2,-24.4
3887,186,-9,-27.13
3888,186,1,-26.86
3890,186,-5,-26.59
3891,186,-2,-26.32
3892,186,4,-26.98
3893,186,-4,-26.64
3895,186,12,-26.3
3896,186,3,-25.96
3897,186,7,-29.58
3898,186,-4,-29.2
3900,186,0,-28.82
3901,186,-4,-28.44
3902,186,-8,-29.06
3903,186,-3,-28.68
3905,186,-11,-28.3
3906,185,5,-27.92
3907,185,7,-29.47
3908,185,9,-29.02
3910,184,6,-28.57
3911,184,10,-28.12
3912,183,13,-28.65
3913,183,10,-28.18
3915,183,40,-27.71
3916,182,34,-27.24
3917,182,31,-25.78
3918,182,17,-25.32
3920,181,6,-24.86
3921,181,-4,-24.4
3922,181,-10,-29.85
3923,181,-14,-29.3
3925,181,-61,-28.75
3926,181,-44,-28.2
3927,181,-33,-26.7
3928,181,-27,-26.2
3930,181,26,-25.7
3931,181,25,-25.2
3932,181,26,-24.7
3933,180,23,-24.2
3935,180,19,-23.7
3936,179,12,-23.2
3937,179,6,-22.71
3938,178,0,-22.22
3940,178,-30,-21.73
3941,177,-28,-21.24
3942,177,-16,-19.76
3943,176,-10,-19.28
3945,176,21,-18.8
3946,176,17,-18.32
3947,176,17,-16.88
3948,176,17,-16.44
3950,176,9,-18.97
3951,176,6,-18.5
3952,176,-26,-18.02
3953,175,-33,-17.54
3955,175,-20,-17.06
3956,174,-17,-17.57
3957,174,31,-17.1
3958,173,23,-16.63
3960,173,13,-16.16
3961,172,15,-15.69
3962,171,-18,-13.27
3963,171,-34,-12.85
3965,170,-19,-12.43
3966,170,-26,-12.01
3967,169,-25,-10.63
3968,168,-10,-10.25
3970,167,0,-9.87
3971,166,7,-9.52
3972,164,13,-9.17
3973,163,3,-8.82
3975,161,41,-8.47
3976,159,35,-8.12
3977,157,24,-8.76
3978,155,19,-8.4
3980,152,12,-8.04
3981,150,5,-7.73
3982,147,2,-4.45
3983,145,-3,-4.17
3985,142,-39,-3.89
3986,139,-31,-3.61
3987,136,-14,-5.36
3988,133,-17,-5.11
3990,131,25,-4.86
3991,128,24,-4.61
3992,126,20,-7.35
3993,124,24,-7.09
3995,123,12,-6.83
3996,121,5,-6.57
3997,120,4,-9.28
3998,120,-1,-8.99
4000,119,-42,-8.7
4001,118,-39,-8.41
4002,118,-24,-10.15
4003,118,-21,-9.89
4005,118,-9,-9.63
4006,117,34,-9.37
4007,118,30,-11.12
4008,118,4,-10.87
4010,119,-14,-10.62
4011,120,-14,-10.37
4012,121,-10,-13.12
4013,123,-9,-12.87
4015,126,-7,-12.62
4016,129,-5,-12.37
4017,132,4,-10.15
4018,135,4,-9.93
4020,139,-2,-9.71
4021,143,7,-9.49
4022,147,10,-13.27
4023,151,8,-13.05
4025,156,6,-12.83
4026,160,8,-12.61
4027,165,2,-15.37
4028,170,5,-15.13
4030,175,6,-14.89
4031,179,1,-14.65
4032,184,1,-16.41
4033,188,1,-16.17
4035,191,-7,-15.93
4036,195,-4,-15.69
4037,198,3,-16.45
4038,201,0,-16.21
4040,203,7,-15.97
4041,206,3,-15.73
4042,208,5,-22.41
4043,209,2,-22.09
4045,210,6,-21.77
4046,211,5,-21.45
4047,212,1,-19.21
4048,213,-7,-18.97
4050,214,33,-18.73
4051,214,30,-18.49
4052,215,10,-25.17
4053,215,5,-24.85
4055,215,5,-24.53
4056,215,3,-24.21
4057,215,0,-24.88
4058,215,-12,-24.55
4060,214,-48,-24.22
4061,214,-26,-23.89
4062,213,-16,-23.56
4063,212,-15,-23.23
4065,211,21,-22.9
4066,210,24,-22.57
4067,209,19,-27.18
4068,207,19,-26.79
4070,206,14,-26.4
4071,205,-7,-29.97
4072,204,-24,-29.53
4073,202,-17,-29.09
4075,201,-18,-28.68
4076,199,-8,-32.23
4077,198,12,-31.78
4078,196,22,-31.33
4080,195,20,-30.88
4081,194,13,-30.44
4082,192,15,-30
4083,191,-33,-29.56
4085,190,-26,-29.12
4086,189,-20,-28.68
4087,188,-9,-28.22
4088,188,-4,-27.76
4090,187,-3,-27.3
4091,187,6,-26.84
4092,187,11,-29.34
4093,187,-2,-28.84
4095,187,33,-28.34
4096,187,29,-27.84
4097,187,20,-29.32
4098,188,12,-28.8
4100,188,5,-28.28
4101,188,1,-27.76
4102,188,0,-31.21
4103,188,-6,-30.66
4105,188,-33,-30.11
4106,189,-24,-29.56
4107,189,-18,-27
4108,189,-3,-26.44
4110,190,31,-25.88
4111,190,33,-25.32
4112,190,29,-29.73
4113,191,22,-29.14
4115,191,18,-28.55
4116,191,11,-27.96
4117,191,0,-27.4
4118,191,1,-26.84
4120,191,-36,-26.28
4121,191,-30,-25.72
4122,191,-27,-31.13
4123,191,-19,-30.54
4125,190,11,-29.95
4126,189,13,-29.36
4127,189,-33,-25.82
4128,188,-32,-25.28
4130,188,-21,-24.74
4131,187,-16,-24.2
4132,187,-14,-23.68
4133,187,-12,-23.16
4135,187,3,-22.64
4136,187,7,-22.12
4137,186,17,-26.58
4138,186,13,-26.04
4140,186,15,-25.5
4141,186,11,-24.96
4142,186,2,-25.39
4143,187,0,-24.82
4145,187,-5,-24.25
4146,188,-5,-23.68
4147,189,-7,-22.16
4148,189,-5,-21.64
4150,190,0,-21.12
4151,191,-2,-20.6
4152,192,-12,-22.09
4153,192,-8,-21.58
4155,192,-5,-21.07
4156,192,-17,-20.56
4157,192,-12,-26.01
4158,192,-10,-25.46
4160,192,-2,-24.91
4161,191,-10,-24.36
4162,191,5,-18.87
4163,191,2,-18.38
4165,190,6,-17.89
4166,190,12,-17.4
4167,190,2,-22.92
4168,190,2,-22.44
4170,190,46,-21.96
4171,190,38,-21.48
4172,189,34,-20.98
4173,189,22,-20.48
4175,189,19,-19.98
4176,188,11,-19.48
4177,188,6,-22.02
4178,188,-1,-21.56
4180,187,-49,-21.1
4181,187,-33,-20.64
4182,187,-24,-25.14
4183,187,-21,-24.64
4185,187,24,-24.14
4186,187,25,-23.64
4187,187,28,-20.17
4188,187,31,-19.7
4190,187,18,-19.23
4191,188,15,-18.76
4192,188,6,-16.36
4193,189,4,-15.96
4195,190,-30,-15.56
4196,191,-21,-15.2
4197,193,-10,-19.79
4198,196,-24,-19.38
4200,200,25,-18.97
4201,204,26,-18.6
4202,209,17,-13.28
4203,214,22,-12.96
4205,220,10,-12.64
4206,223,-10,-7.37
4207,225,-30,-7.1
4208,224,-19,-6.83
4210,222,-26,-6.56
4211,219,-15,-9.26
4212,215,22,-8.96
4213,209,18,-8.66
4215,203,23,-8.36
4216,197,21,-8.06
4217,195,-14,-7.79
4218,198,-22,-7.52
4220,205,-19,-7.25
4221,215,-21,-6.98
4222,236,-11,-3.76
4223,266,-14,-3.54
4225,304,-1,-3.32
4226,347,-1,-3.1
4227,405,4,-5.89
4228,474,-2,-5.68
4230,552,28,-5.47
4231,637,22,-5.26
4232,731,18,-2.06
4233,833,13,-1.86
4235,939,9,-1.66
4236,1048,8,-1.46
4237,1157,6,0.67
4238,1263,-3,0.8
4240,1366,-37,0.93
4241,1464,-24,1.06
4242,1551,-7,4.16
4243,1627,0,4.26
4245,1692,36,4.36
4246,1748,34,4.46
4247,1789,32,4.5
4248,1816,26,4.54
4250,1832,14,4.58
4251,1838,10,4.62
4252,1829,-32,1.72
4253,1810,-28,1.82
4255,1780,-19,1.92
4256,1743,-18,2.02
4257,1696,-12,6.08
4258,1642,-4,6.14
4260,1582,0,6.2
4261,1519,-2,6.26
4262,1450,3,8.25
4263,1377,-3,8.24
4265,1302,-1,8.23
4266,1226,1,8.22
4267,1148,-1,10.18
4268,1069,0,10.14
4270,991,0,10.1
4271,915,-4,10.06
4272,840,-5,6.07
4273,766,-13,6.08
4275,694,-8,6.09
4276,626,-16,6.1
4277,559,-14,8.07
4278,496,-5,8.04
4280,436,-6,8.01
4281,379,-10,7.98
4282,326,0,5.91
4283,276,2,5.84
4285,229,2,5.77
4286,186,-4,5.7
4287,146,5,6.67
4288,110,7,6.64
4290,76,45,6.61
4291,46,30,6.58
4292,19,35,7.48
4293,-4,31,7.38
4295,-26,22,7.28
4296,-45,19,7.18
4297,-62,11,4.11
4298,-76,5,4.04
4300,-88,-21,3.97
4301,-99,-19,3.9
4302,-107,-17,3.8
4303,-114,6,4.69
4305,-120,17,4.58
4306,-124,12,4.47
4307,-127,7,4.31
4308,-129,-7,3.16
4310,-130,-13,3.01
4311,-130,-13,2.86
4312,-129,-23,2.74
4313,-128,-72,4.6
4315,-127,-73,4.46
4316,-125,-55,4.32
4317,-123,-37,4.2
4318,-120,9,-3.84
4320,-118,33,-3.88
4321,-114,42,-3.92
4322,-111,42,0.94
4323,-107,37,0.8
4325,-103,30,0.66
4326,-99,-13,-8.39
4327,-95,-25,-8.39
4328,-90,-17,-8.39
4330,-86,-8,-8.39
4331,-82,-4,-7.35
4332,-78,33,-7.31
4333,-74,22,-7.27
4335,-69,21,-7.23
4336,-66,16,-7.22
4337,-62,-17,-8.2
4338,-58,-31,-8.18
4340,-54,-29,-8.16
4341,-51,-25,-8.14
4342,-48,-12,-8.12
4343,-45,-6,-11.07
4345,-42,-5,-11.02
4346,-39,1,-10.97
4347,-37,5,-10.89
4348,-35,39,-10.81
4350,-32,36,-10.73
4351,-30,26,-10.65
4352,-27,19,-10.6
4353,-25,15,-7.58
4355,-23,11,-7.56
4356,-21,9,-7.54
4357,-19,4,-7.49
4358,-17,-27,-4.47
4360,-15,-25,-4.45
4361,-13,-11,-4.43
4362,-12,-9,-4.39
4363,-10,13,-8.31
4365,-8,28,-8.23
4366,-7,-11,-8.15
4367,-5,29,-8.04
4368,-4,18,-1
4370,-2,11,-0.96
4371,-1,0,-0.92
4372,0,1,-0.88
4373,1,-33,-2.82
4375,2,-37,-2.76
4376,2,-38,-2.7
4377,3,-18,-2.67
4378,4,20,-3.63
4380,5,22,-3.59
4381,6,19,-3.55
4382,7,20,-3.47
4383,9,14,-0.42
4385,10,-32,-0.37
4386,12,-27,-0.32
4387,14,-26,-0.25
4388,16,-17,-0.18
4390,19,-18,-0.11
4391,21,-6,-0.04
4392,23,7,0.05
4393,26,-2,-0.85
4395,28,-2,-0.75
4396,30,7,-0.65
4397,32,3,-0.59
4398,33,3,2.44
4400,35,15,2.47
4401,37,17,2.5
4402,38,9,2.55
4403,39,12,3.59
4405,41,5,3.63
4406,42,8,3.67
4407,43,4,3.69
4408,44,2,5.69
4410,44,0,5.69
4411,45,7,5.69
4412,45,3,5.7
4413,46,-3,5.71
4415,46,3,5.72
4416,46,0,5.73
4417,46,6,5.75
4418,46,6,3.79
4420,46,6,3.83
4421,46,2,3.87
4422,45,1,3.88
4423,45,23,8.84
4425,45,33,8.8
4426,45,31,8.76
4427,44,24,8.72
4428,44,18,6.71
4430,44,9,6.7
4431,44,1,6.69
4432,43,-2,6.68
4433,43,-31,3.69
4435,42,-46,3.7
4436,42,-33,3.71
4437,42,-23,3.72
4438,41,6,2.76
4440,40,15,2.8
4441,39,17,2.84
4442,38,10,2.88
4443,37,8,4.82
4445,36,0,4.76
4446,34,0,4.7
4447,32,-6,4.69
4448,30,-32,5.67
4450,28,-31,5.65
4451,26,-20,5.54
4452,25,-17,5.43
4453,23,12,6.31
4455,21,24,6.19
4456,19,21,6.08
4457,17,19,5.97
4458,15,12,5.86
4460,12,5,5.75
4461,10,-34,10.59
4462,8,-31,10.42
4463,7,-29,10.25
4465,5,-15,10.08
4466,3,-20,12.88
4467,2,32,12.68
4468,0,29,12.45
4470,-1,36,12.22
4471,-2,23,11.99
4472,-4,17,16.71
4473,-5,15,16.43
4475,-6,3,16.15
4476,-8,-41,15.87
4477,-9,-20,15.59
4478,-10,-20,19.3
4480,-11,-16,19.01
4481,-12,-7,18.72
4482,-13,-3,18.43
4483,-14,34,22.13
4485,-15,39,21.83
4486,-16,23,21.53
4487,-17,20,21.23
4488,-18,11,29.8
4490,-19,5,29.37
4491,-20,-6,28.94
4492,-21,-6,28.51
4493,-22,-32,39.04
4495,-23,-32,38.57
4496,-23,-23,38.1
4497,-24,-15,37.63
4498,-24,23,44.07
4500,-24,20,43.51
4501,-24,15,42.95
4502,-24,-14,42.39
4503,-24,-10,51.72
4505,-23,-4,51.05
4506,-23,-4,50.38
4507,-22,-2,49.71
4508,-21,-5,60.95
4510,-20,3,60.19
4511,-18,2,59.43
4512,-16,-1,58.67
4513,-14,0,66.82
4515,-12,-5,65.97
4516,-9,-2,65.12
4517,-7,-5,64.27
4518,-4,-6,76.28
4520,-2,-12,75.29
4521,0,2,74.3
4522,3,-1,73.31
4523,6,-2,80.27
4525,8,-3,79.23
4526,11,3,78.19
4527,13,8,77.15
4528,16,3,88.99
4530,19,-1,87.83
4531,22,6,86.67
4532,26,4,85.51
4533,29,2,92.29
4535,32,-2,91.07
4536,35,0,89.85
4537,38,4,88.63
4538,41,2,99.29
4540,44,-1,97.95
4541,48,-8,96.61
4542,51,-8,95.27
4543,54,13,104.8
4545,58,19,103.33
4546,61,12,101.86
4547,65,10,100.39
4548,68,4,107.88
4550,72,-2,106.37
4551,75,-6,104.86
4552,79,-5,103.35
4553,82,-42,111.72
4555,85,-33,110.09
4556,89,-12,108.46
4557,91,5,106.83
4558,94,19,112.1
4560,98,48,110.37
4561,101,34,108.64
4562,104,31,106.91
4563,107,27,112.1
4565,110,8,110.29
4566,112,-2,108.48
4567,115,-8,106.67
4568,118,-39,114.78
4570,121,-47,112.89
4571,124,-33,111
4572,128,-19,109.11
4573,131,13,110.2
4575,134,21,108.29
4576,137,21,106.38
4577,140,20,110.41
4578,143,17,108.45
4580,146,11,106.49
4581,148,-29,110.47
4582,151,-56,108.45
4583,153,-39,106.43
4585,155,-17,104.41
4586,157,-9,106.4
4587,159,29,104.39
4588,161,37,102.38
4590,163,42,100.37
4591,164,35,98.39
4592,166,-13,99.38
4593,167,-15,97.37
4595,169,-10,95.36
4596,170,-6,93.35
4597,171,-6,91.39
4598,173,-2,91.41
4600,175,5,89.43
4601,176,7,87.45
4602,178,5,85.47
4603,180,29,88.48
4605,181,36,86.49
4606,183,24,84.5
4607,184,19,82.51
4608,185,13,82.54
4610,186,6,80.57
4611,187,-5,78.6
4612,187,-5,76.63
4613,188,-34,76.73
4615,189,-31,74.83
4616,189,-26,72.93
4617,190,-22,71.03
4618,191,17,71.22
4620,192,16,69.41
4621,192,15,67.6
4622,193,13,65.79
4623,194,11,63.06
4625,194,4,61.33
4626,195,1,59.6
4627,196,-37,57.87
4628,196,-35,57.23
4630,196,-33,55.59
4631,196,-26,53.95
4632,195,-19,52.31
4633,196,-16,48.81
4635,196,0,47.31
4636,197,7,45.81
4637,198,7,44.31
4638,199,14,38.94
4640,200,4,37.57
4641,200,13,36.2
4642,201,4,34.83
4643,201,9,32.6
4645,202,8,31.37
4646,202,3,30.14
4647,202,3,28.91
4648,202,-4,27.76
4650,201,-9,26.61
4651,201,-1,25.46
4652,200,-6,24.31
4653,200,-1,13.39
4655,199,0,12.47
4656,198,-3,11.55
4657,197,-6,10.63
4658,196,-12,9.79
4660,196,-8,8.95
4661,195,-7,8.11
4662,194,-3,7.27
4663,194,29,2.59
4665,193,33,1.91
4666,193,29,1.23
4667,192,22,0.55
4668,192,18,-8.93
4670,192,11,-9.41
4671,192,3,-9.89
4672,191,-1,-10.37
4673,191,-41,-14.72
4675,191,-55,-15.07
4676,190,-40,-15.42
4677,190,-24,-15.77
4678,190,15,-20.97
4680,189,34,-21.17
4681,189,33,-21.37
4682,188,34,-21.57
4683,188,26,-25.66
4685,188,18,-25.75
4686,188,8,-25.84
4687,188,5,-25.93
4688,187,-34,-27.93
4690,187,-43,-27.93
4691,186,-34,-27.93
4692,185,-29,-27.93
4693,184,17,-36.74
4695,183,27,-36.55
4696,182,-23,-36.36
4697,181,35,-36.17
4698,180,29,-39.91
4700,178,22,-39.65
4701,177,18,-39.39
4702,175,9,-39.07
4703,173,-19,-42.71
4705,172,-23,-42.35
4706,169,-21,-41.93
4707,167,-11,-41.51
4708,165,16,-45.05
4710,163,22,-44.59
4711,160,20,-44.09
4712,158,21,-45.57
4713,156,14,-45.05
4715,154,7,-44.53
4716,152,-32,-51.93
4717,151,-30,-51.3
4718,149,-27,-50.67
4720,148,-12,-50.04
4721,146,-14,-50.4
4722,145,29,-49.76
4723,143,29,-49.1
4725,142,12,-48.44
4726,141,24,-47.78
4727,139,17,-54.05
4728,138,8,-53.27
4730,138,5,-52.49
4731,137,0,-51.71
4732,136,-3,-50.93
4733,135,-28,-49.14
4735,135,-39,-48.35
4736,134,-33,-47.56
4737,133,-23,-46.77
4738,133,16,-48.93
4740,132,21,-48.09
4741,132,22,-47.25
4742,131,22,-46.41
4743,131,18,-46.54
4745,131,10,-45.67
4746,130,7,-44.8
4747,130,-1,-43.93
4748,129,-35,-44.06
4750,129,-43,-43.19
4751,129,-35,-42.32
4752,128,-16,-41.45
4753,128,28,-45.52
4755,128,28,-44.59
4756,128,25,-43.66
4757,129,20,-42.73
4758,129,21,-46.77
4760,129,-29,-45.81
4761,129,-16,-44.85
4762,130,-22,-43.89
4763,130,-7,-44.95
4765,130,3,-44.01
4766,129,-4,-43.07
4767,129,6,-42.13
4768,129,3,-43.18
4770,129,-10,-42.23
4771,129,-3,-41.28
4772,128,-6,-40.33
4773,128,-5,-38.39
4775,128,0,-37.45
4776,128,9,-36.51
4777,128,2,-35.57
4778,128,1,-41.66
4780,128,4,-40.75
4781,128,1,-39.84
4782,128,9,-38.93
4783,128,-2,-39.01
4785,128,0,-38.09
4786,127,-1,-37.17
4787,127,5,-36.25
4788,126,0,-36.36
4790,126,7,-35.47
4791,125,-3,-34.58
4792,125,0,-33.69
4793,124,1,-36.85
4795,123,4,-36.01
4796,121,-3,-35.17
4797,120,-7,-34.33
4798,119,26,-33.53
4800,118,25,-32.73
4801,117,15,-31.93
4802,116,12,-31.13
4803,115,10,-29.39
4805,114,5,-28.65
4806,113,1,-27.91
4807,111,-1,-27.17
4808,109,-21,-29.44
4810,107,-32,-28.71
4811,105,-23,-27.98
4812,102,-14,-27.25
4813,99,8,-24.56
4815,97,33,-23.87
4816,94,23,-23.18
4817,92,27,-22.49
4818,89,24,-24.86
4820,87,11,-24.23
4821,84,8,-23.6
4822,82,-1,-22.97
4823,79,-27,-25.35
4825,77,-40,-24.73
4826,74,-30,-24.11
4827,71,-23,-23.49
4828,68,14,-21.92
4830,65,15,-21.35
4831,62,15,-20.78
4832,59,16,-28.13
4833,56,11,-27.52
4835,53,8,-26.91
4836,51,-38,-29.27
4837,49,-52,-28.65
4838,47,-37,-28.03
4840,46,-26,-27.41
4841,45,-13,-28.85
4842,44,40,-28.29
4843,43,35,-27.73
4845,42,42,-27.17
4846,42,30,-26.62
4847,42,-9,-31.02
4848,42,-23,-30.42
4850,42,-20,-29.82
4851,42,-19,-29.22
4852,43,-13,-28.69
4853,43,-11,-26.18
4855,44,-6,-25.67
4856,46,1,-25.16
4857,47,1,-24.65
4858,48,26,-29.08
4860,50,34,-28.51
4861,52,27,-27.94
4862,55,19,-27.37
4863,58,15,-29.8
4865,61,10,-29.23
4866,64,6,-28.66
4867,68,0,-28.09
4868,72,-44,-37.43
4870,77,-34,-36.77
4871,82,-22,-36.11
4872,86,-19,-35.45
4873,91,32,-35.79
4875,95,31,-35.13
4876,99,29,-34.47
4877,103,1,-33.81
4878,106,-13,-32.21
4880,109,-8,-31.61
4881,112,-7,-31.01
4882,114,-11,-30.41
4883,116,-12,-37.78
4885,118,-4,-37.15
4886,120,-4,-36.52
4887,121,-4,-35.89
4888,121,-10,-40.23
4890,122,-11,-39.57
4891,121,-2,-38.91
4892,121,10,-38.25
4893,121,10,-38.6
4895,120,5,-37.95
4896,120,11,-37.3
4897,119,12,-36.65
4898,118,10,-37.97
4900,118,9,-37.29
4901,117,4,-36.61
4902,116,3,-35.93
4903,115,-2,-39.28
4905,115,-9,-38.63
4906,114,-3,-37.98
4907,113,-5,-37.33
4908,112,-7,-43.62
4910,111,-11,-42.91
4911,110,-2,-42.2
4912,110,-2,-41.49
4913,109,-2,-45.74
4915,109,-5,-44.99
4916,108,6,-44.24
4917,108,1,-43.49
4918,108,27,-42.78
4920,107,33,-42.07
4921,107,23,-41.36
4922,106,19,-40.65
4923,105,11,-46.87
4925,104,7,-46.09
4926,103,-1,-45.31
4927,102,-5,-44.53
4928,101,-33,-45.72
4930,100,-36,-44.91
4931,99,-26,-44.1
4932,98,-33,-43.29
4933,97,3,-51.42
4935,96,28,-50.55
4936,95,24,-49.68
4937,93,22,-48.81
4938,92,18,-52.87
4940,90,15,-51.93
4941,88,10,-50.99
4942,86,3,-50.05
4943,83,-36,-50.13
4945,81,-38,-49.21
4946,78,-28,-48.29
4947,75,-20,-47.37
4948,72,16,-50.44
4950,69,24,-49.51
4951,67,23,-48.58
4952,64,22,-55.57
4953,61,18,-54.55
4955,59,10,-53.53
4956,56,-41,-54.49
4957,54,-46,-53.53
4958,51,-33,-52.57
4960,49,-13,-51.61
4961,47,-7,-58.6
4962,44,1,-57.59
4963,42,37,-56.58
4965,40,35,-55.57
4966,37,28,-54.58
4967,35,22,-54.58
4968,33,-15,-53.58
4970,31,-34,-52.58
4971,30,-32,-51.58
4972,28,-30,-50.63
4973,26,-20,-52.65
4975,25,-14,-51.67
4976,23,-15,-50.69
4977,21,-4,-49.71
4978,20,30,-52.67
4980,18,44,-51.63
4981,17,34,-50.59
4982,16,27,-49.55
4983,15,17,-51.53
4985,14,15,-50.51
4986,13,8,-49.49
4987,12,6,-48.47
4988,11,-33,-50.45
4990,11,-41,-49.43
4991,11,-27,-48.41
4992,10,-18,-47.39
4993,10,4,-46.47
4995,9,34,-45.55
4996,9,30,-44.63
4997,9,31,-43.71
4998,8,24,-47.75
5000,8,16,-46.79
5001,7,12,-45.83
5002,7,-30,-44.87
5003,7,-29,-47.86
5005,6,-27,-46.85
5006,6,-23,-45.84
5007,6,-14,-44.83
5008,6,-8,-45.88
5010,6,-10,-44.93
5011,6,-9,-43.98
5012,6,-4,-43.03
5013,5,-6,-44.11
5015,5,-4,-43.19
5016,5,9,-42.27
5017,5,4,-41.35
5018,5,6,-42.42
5020,4,9,-41.49
5021,4,13,-40.56
5022,3,2,-39.63
5023,3,3,-44.66
5025,2,-4,-43.69
5026,2,3,-42.72
5027,1,6,-41.75
5028,1,-7,-39.83
5030,1,-5,-38.91
5031,0,-3,-37.99
5032,0,12,-37.07
5033,1,9,-38.2
5035,2,9,-37.33
5036,3,9,-36.46
5037,4,-1,-35.59
5038,7,43,-33.78
5040,11,42,-32.97
5041,15,30,-32.16
5042,20,15,-31.35
5043,26,13,-27.57
5045,31,10,-26.79
5046,37,6,-26.01
5047,43,-1,-25.23
5048,46,-35,-27.49
5050,47,-24,-26.75
5051,47,-23,-26.01
5052,44,-20,-25.27
5053,41,16,-27.52
5055,36,14,-26.77
5056,31,10,-26.02
5057,26,10,-25.27
5058,25,5,-22.63
5060,29,3,-21.99
5061,37,-1,-21.35
5062,48,-5,-20.71
5063,70,-59,-18.14
5065,101,-44,-17.57
5066,139,-30,-17
5067,182,-33,-16.43
5068,240,29,-15.87
5070,309,30,-15.31
5071,386,29,-14.75
5072,476,30,-13.2
5073,573,18,-12.69
5075,677,15,-12.18
5076,783,-30,-12.66
5077,890,-42,-12.22
5078,995,-21,-11.78
5080,1099,-17,-11.34
5081,1199,-2,-10.92
5082,1288,31,-7.53
5083,1366,32,-7.14
5085,1434,30,-6.75
5086,1493,27,-6.44
5087,1537,-18,-5.14
5088,1567,-12,-4.84
5090,1586,-2,-4.54
5091,1595,0,-4.24
5092,1596,4,-3.95
5093,1583,8,-1.68
5095,1560,11,-1.41
5096,1529,23,-1.14
5097,1490,26,-0.87
5098,1443,74,-0.63
5100,1389,56,-0.39
5101,1331,36,-0.15
5102,1269,25,0.09
5103,1202,0,-3.67
5105,1132,-19,-3.43
5106,1059,-33,-3.19
5107,985,-33,-2.95
5108,911,-69,1.22
5110,835,-71,1.39
5111,761,-51,1.56
5112,689,-45,1.73
5113,617,13,-3.08
5115,548,17,-2.89
5116,481,20,-2.7
5117,417,21,-2.51
5118,355,18,-4.3
5120,296,7,-4.09
5121,241,6,-3.88
5122,189,2,-3.67
5123,140,-57,-7.47
5125,94,-39,-7.27
5126,52,-36,-7.07
5127,13,-11,-6.87
5128,-22,-30,-10.67
5130,-56,-28,-10.47
5131,-86,43,-10.27
5132,-114,39,-10.07
5133,-139,-34,-10.88
5135,-162,-22,-10.69
5136,-182,-15,-10.5
5137,-200,-13,-10.31
5138,-216,-14,-17.07
5140,-230,-15,-16.83
5141,-243,-8,-16.59
5142,-253,6,-16.35
5143,-262,1,-18.11
5145,-270,8,-17.87
5146,-277,-7,-17.63
5147,-282,3,-17.39
5148,-286,-6,-22.16
5150,-289,-8,-21.93
5151,-292,14,-21.7
5152,-293,-6,-21.47
5153,-294,12,-24.2
5155,-295,13,-23.93
5156,-295,9,-23.66
5157,-294,18,-23.39
5158,-293,21,-25.12
5160,-293,16,-24.85
5161,-292,21,-24.58
5162,-290,25,-24.31
5163,-289,23,-23.04
5165,-288,18,-22.77
5166,-287,22,-22.5
5167,-285,17,-22.23
5168,-284,6,-28.86
5170,-283,10,-28.49
5171,-281,0,-28.12
5172,-279,2,-27.75
5173,-278,48,-28.4
5175,-276,29,-28.05
5176,-275,16,-27.7
5177,-274,12,-27.35
5178,-272,-4,-29.01
5180,-271,-2,-28.67
5181,-270,-6,-28.33
5182,-268,-5,-27.99
5183,-267,-30,-30.6
5185,-266,-34,-30.21
5186,-265,-23,-29.82
5187,-264,-12,-29.43
5188,-263,24,-32.98
5190,-261,29,-32.53
5191,-260,14,-32.08
5192,-258,12,-33.61
5193,-257,0,-33.14
5195,-255,-4,-32.67
5196,-253,-26,-33.19
5197,-252,-48,-32.7
5198,-250,-40,-32.21
5200,-249,-26,-31.72
5201,-247,-4,-31.24
5202,-245,29,-30.76
5203,-244,26,-30.28
5205,-242,33,-29.8
5206,-240,22,-29.32
5207,-238,-2,-28.81
5208,-236,-28,-26.32
5210,-233,-23,-25.83
5211,-231,-14,-25.34
5212,-228,-14,-24.84
5213,-225,-4,-26.32
5215,-223,4,-25.8
5216,-221,-5,-25.28
5217,-219,8,-24.76
5218,-218,30,-24.22
5220,-217,21,-23.68
5221,-216,17,-23.14
5222,-215,12,-22.6
5223,-214,9,-21.07
5225,-213,6,-20.54
5226,-213,3,-20.01
5227,-212,-1,-19.48
5228,-211,-45,-18
5230,-210,-33,-17.52
5231,-208,-22,-17.04
5232,-206,-11,-16.56
5233,-204,36,-19.01
5235,-202,30,-18.46
5236,-200,35,-17.91
5237,-199,29,-17.36
5238,-197,22,-16.86
5240,-196,16,-16.36
5241,-195,0,-15.86
5242,-194,-7,-15.36
5243,-193,-44,-17.85
5245,-192,-40,-17.34
5246,-191,-36,-16.83
5247,-190,-22,-16.32
5248,-189,23,-15.85
5250,-187,23,-15.38
5251,-185,-45,-14.91
5252,-184,24,-14.44
5253,-182,-37,-13.02
5255,-180,-39,-12.6
5256,-178,-27,-12.18
5257,-176,-28,-11.76
5258,-174,-16,-14.32
5260,-172,-5,-13.88
5261,-170,-7,-13.44
5262,-168,8,-13
5263,-166,-7,-11.64
5265,-164,-2,-11.28
5266,-162,6,-10.92
5267,-160,8,-10.56
5268,-158,5,-15.17
5270,-157,1,-14.78
5271,-155,5,-14.39
5272,-155,2,-14
5273,-154,8,-7.72
5275,-154,-7,-7.44
5276,-154,9,-7.16
5277,-154,8,-6.88
5278,-154,-2,-5.64
5280,-155,2,-5.4
5281,-155,8,-5.16
5282,-156,-2,-4.92
5283,-157,10,-4.7
5285,-158,15,-4.48
5286,-160,13,-4.26
5287,-161,20,-4.04
5288,-162,18,3.12
5290,-163,17,3.28
5291,-164,17,3.44
5292,-165,13,3.6
5293,-166,2,4.68
5295,-167,2,4.76
5296,-169,43,4.84
5297,-170,25,4.92
5298,-171,12,7.96
5300,-173,14,8
5301,-175,5,8.04
5302,-177,7,8.08
5303,-179,-29,10.08
5305,-181,-48,10.08
5306,-183,-23,10.08
5307,-185,-17,10.08
5308,-187,19,15.99
5310,-189,27,15.9
5311,-191,27,15.81
5312,-193,28,15.72
5313,-196,17,21.53
5315,-198,8,21.34
5316,-200,6,21.15
5317,-202,0,20.94
5318,-204,-36,29.64
5320,-207,-36,29.34
5321,-209,-28,29.03
5322,-212,-17,28.72
5323,-214,19,35.34
5325,-217,19,34.96
5326,-219,14,34.58
5327,-222,17,39.15
5328,-224,13,38.72
5330,-227,4,38.29
5331,-229,-31,44.79
5332,-231,-36,44.29
5333,-233,-23,43.81
5335,-235,-21,43.33
5336,-236,-8,42.85
5337,-238,31,48.31
5338,-239,25,47.75
5340,-241,27,47.19
5341,-242,19,46.63
5342,-243,16,46.07
5343,-244,14,54.42
5345,-244,2,53.77
5346,-245,-4,53.12
5347,-245,0,52.47
5348,-244,-37,64.7
5350,-244,-44,63.93
5351,-243,-17,63.16
5352,-241,-19,62.39
5353,-240,27,69.55
5355,-237,25,68.71
5356,-235,24,67.87
5357,-233,19,67.03
5358,-230,16,75.07
5360,-227,8,74.11
5361,-225,-33,73.15
5362,-222,-40,72.19
5363,-219,-20,80.14
5365,-216,-24,79.09
5366,-213,-11,78.04
5367,-210,-8,76.99
5368,-207,34,87.79
5370,-204,30,86.59
5371,-200,25,85.39
5372,-197,18,84.19
5373,-193,13,88.93
5375,-189,6,87.67
5376,-185,-38,86.41
5377,-182,-38,85.15
5378,-178,-15,93.8
5380,-174,-8,92.45
5381,-170,-4,91.1
5382,-166,4,89.75
5383,-162,6,99.26
5385,-158,0,97.77
5386,-154,-7,96.28
5387,-150,-15,94.79
5388,-147,-14,102.22
5390,-143,0,100.65
5391,-139,11,99.08
5392,-136,-4,97.51
5393,-132,-3,103.81
5395,-128,11,102.11
5396,-125,17,100.41
5397,-121,18,98.71
5398,-118,13,104.99
5400,-114,14,103.27
5401,-110,17,101.55
5402,-107,13,99.83
5403,-103,0,108.02
5405,-100,-2,106.21
5406,-96,-13,104.4
5407,-93,-16,102.59
5408,-90,-16,105.73
5410,-86,-13,103.87
5411,-83,-11,102.01
5412,-79,-2,100.15
5413,-76,38,109.25
5415,-72,32,107.35
5416,-69,20,105.45
5417,-65,15,103.55
5418,-62,11,107.6
5420,-58,5,105.65
5421,-55,-2,103.7
5422,-51,-3,101.75
5423,-47,-44,105.77
5425,-44,-52,103.79
5426,-40,-34,101.81
5427,-36,-24,99.83
5428,-33,33,105.79
5430,-29,27,103.75
5431,-26,27,101.71
5432,-23,28,99.67
5433,-20,22,103.63
5435,-17,17,101.59
5436,-14,-16,99.55
5437,-11,-40,97.51
5438,-8,-38,95.53
5440,-5,-31,93.55
5441,-2,-10,91.57
5442,0,32,95.53
5443,2,33,93.58
5445,5,27,91.63
5446,8,31,89.68
5447,11,-14,87.73
5448,13,-29,91.79
5450,16,-29,89.85
5451,18,-9,87.91
5452,20,-19,86.02
5453,22,-12,87.1
5455,23,-15,85.18
5456,25,1,83.33
5457,26,13,81.48
5458,27,43,82.6
5460,27,38,80.72
5461,28,24,78.84
5462,28,24,77.02
5463,28,15,79.16
5465,28,8,77.3
5466,29,2,75.44
5467,29,-3,73.58
5468,29,-44,78.74
5470,29,-40,76.9
5471,29,-26,75.06
5472,28,-9,73.22
5473,28,29,70.52
5475,28,27,68.82
5476,28,24,67.12
5477,28,21,65.42
5478,28,15,65.78
5480,28,6,64.14
5481,27,2,62.5
5482,27,-3,60.86
5483,27,-57,63.27
5485,27,-43,61.68
5486,26,-15,60.09
5487,26,-6,58.5
5488,26,38,55.02
5490,25,38,53.54
5491,25,25,52.06
5492,24,27,50.58
5493,23,14,47.24
5495,23,7,45.9
5496,22,0,44.56
5497,21,-7,43.22
5498,20,-40,39.96
5500,19,-40,38.7
5501,19,-30,37.44
5502,18,-19,36.18
5503,18,-10,36.01
5505,18,-15,34.84
5506,18,-5,33.67
5507,18,4,32.5
5508,19,38,27.48
5510,19,-8,26.46
5511,20,-14,25.44
5512,21,-13,24.42
5513,21,-8,17.55
5515,22,0,16.68
5516,23,-6,15.81
5517,23,-9,14.94
5518,24,3,10.19
5520,25,2,9.44
5521,26,7,8.69
5522,27,3,7.94
5523,28,0,3.31
5525,29,8,2.68
5526,30,7,2.05
5527,31,-8,1.42
5528,32,8,-1.09
5530,33,-1,-1.6
5531,34,5,-2.11
5532,34,7,-2.62
5533,34,-8,-8.03
5535,35,-5,-8.44
5536,35,-4,-8.85
5537,34,3,-9.26
5538,34,43,-11.54
5540,35,33,-11.82
5541,35,24,-12.1
5542,36,23,-12.38
5543,36,-5,-14.58
5545,37,-37,-14.78
5546,37,-33,-14.98
5547,38,-32,-15.18
5548,39,-17,-17.3
5550,39,30,-17.42
5551,40,29,-17.54
5552,41,29,-17.66
5553,41,27,-20.67
5555,42,19,-20.68
5556,42,13,-20.69
5557,42,6,-20.7
5558,42,-38,-28.57
5560,42,-48,-28.44
5561,42,-24,-28.31
5562,42,-16,-28.18
5563,42,-14,-28.05
5565,41,40,-27.92
5566,41,32,-27.79
5567,41,28,-27.6
5568,41,21,-30.38
5570,41,15,-30.16
5571,40,7,-29.94
5572,40,5,-29.72
5573,39,-54,-29.44
5575,38,-26,-29.16
5576,38,-20,-28.88
5577,37,-21,-28.6
5578,36,34,-33.24
5580,36,22,-32.88
5581,35,22,-32.52
5582,34,20,-32.16
5583,34,13,-34.74
5585,34,7,-34.32
5586,33,-38,-32.91
5587,33,-39,-32.5
5588,33,-29,-32.05
5590,33,-17,-31.6
5591,33,-5,-31.15
5592,34,37,-36.64
5593,34,29,-36.06
5595,34,32,-35.48
5596,34,26,-34.9
5597,34,21,-34.32
5598,34,14,-30.78
5600,35,14,-30.24
5601,35,-2,-29.7
5602,35,-3,-29.16
5603,36,-32,-31.57
5605,36,-38,-30.98
5606,36,-35,-30.39
5607,36,-23,-29.8
5608,36,19,-30.16
5610,36,18,-29.52
5611,36,21,-28.88
5612,36,18,-28.24
5613,37,14,-31.58
5615,37,9,-30.92
5616,38,6,-30.26
5617,38,1,-29.6
5618,39,-46,-28.96
5620,39,-34,-28.32
5621,40,-10,-27.68
5622,40,-6,-27.04
5623,41,31,-27.41
5625,41,27,-26.78
5626,41,-20,-26.15
5627,41,-7,-25.52
5628,40,-25,-24.88
5630,40,-24,-24.24
5631,40,-23,-23.6
5632,40,-17,-22.96
5633,40,-4,-25.33
5635,39,-6,-24.7
5636,39,0,-24.07
5637,39,-2,-23.44
5638,39,-3,-22.87
5640,39,-4,-22.3
5641,39,-1,-21.73
5642,39,4,-21.16
5643,39,6,-17.66
5645,40,21,-17.16
5646,40,16,-16.66
5647,40,10,-16.16
5648,40,5,-16.69
5650,40,-1,-16.22
5651,40,5,-15.75
5652,40,8,-15.28
5653,40,3,-16.81
5655,39,-5,-16.34
5656,38,-3,-15.87
5657,37,7,-15.4
5658,36,3,-12.01
5660,34,4,-11.62
5661,32,8,-11.23
5662,30,8,-10.84
5663,28,8,-13.44
5665,26,3,-13.04
5666,23,6,-12.64
5667,21,1,-12.24
5668,18,34,-8.89
5670,15,28,-8.54
5671,13,20,-8.19
5672,10,21,-7.84
5673,8,19,-8.5
5675,5,13,-8.16
5676,3,5,-7.82
5677,1,1,-7.48
5678,0,-45,-9.15
5680,-2,-33,-8.82
5681,-4,-21,-8.49
5682,-6,-14,-8.16
5683,-7,31,-6.92
5685,-8,29,-6.68
5686,-10,19,-6.44
5687,-11,19,-6.2
5688,-12,11,-7.94
5690,-12,3,-7.68
5691,-13,-7,-7.42
5692,-13,-10,-7.16
5693,-13,-34,-7.92
5695,-13,-38,-7.68
5696,-11,-22,-7.44
5697,-10,-22,-7.2
5698,-8,22,-13.89
5700,-6,17,-13.58
5701,-3,12,-13.27
5702,0,11,-12.96
5703,2,10,-8.74
5705,5,5,-8.52
5706,9,-23,-8.3
5707,13,-51,-11.05
5708,18,-37,-10.83
5710,22,-22,-10.61
5711,27,-18,-10.38
5712,31,36,-14.11
5713,36,30,-13.84
5715,40,34,-13.57
5716,44,30,-13.3
5717,48,-3,-13.09
5718,51,-32,-14.86
5720,54,-19,-14.63
5721,57,-25,-14.4
5722,59,-20,-14.17
5723,61,3,-18.86
5725,63,0,-18.55
5726,64,8,-18.24
5727,66,13,-17.93
5728,66,37,-17.65
5730,67,42,-14.4
5731,67,36,-14.15
5732,67,25,-13.9
5733,67,16,-13.66
5735,67,4,-16.39
5736,67,2,-16.12
5737,67,1,-15.85
5738,67,-29,-15.62
5740,67,-42,-22.32
5741,67,-31,-22.02
5742,67,-18,-21.72
5743,67,-2,-21.42
5745,67,13,-22.11
5746,66,13,-21.8
5747,66,15,-21.49
5748,66,12,-21.19
5750,65,10,-22.87
5751,64,5,-22.55
5752,64,-12,-22.23
5753,63,-42,-24.88
5755,63,-35,-24.53
5756,62,-18,-24.18
5757,62,-9,-23.83
5758,62,-1,-26.48
5760,61,-7,-26.13
5761,61,4,-25.78
5762,61,14,-25.43
5763,60,11,-28.05
5765,60,7,-27.67
5766,60,12,-27.29
5767,59,6,-26.91
5768,59,1,-26.5
5770,58,6,-25.1
5771,58,5,-24.7
5772,58,4,-24.3
5773,58,6,-23.91
5775,58,-2,-31.44
5776,58,0,-30.97
5777,58,1,-30.5
5778,58,-5,-30.05
5780,58,3,-33.56
5781,57,1,-33.07
5782,57,4,-32.58
5783,57,3,-32.06
5785,56,4,-32.53
5786,56,5,-32
5787,55,1,-31.47
5788,55,16,-30.97
5790,55,30,-34.43
5791,54,21,-33.89
5792,53,19,-33.35
5793,53,14,-32.78
5795,52,14,-35.18
5796,52,6,-34.58
5797,51,1,-33.98
5798,51,-17,-33.39
5800,50,-36,-33.79
5801,50,-25,-33.19
5802,49,-21,-32.59
5803,48,-2,-32.01
5805,48,26,-34.4
5806,47,19,-33.79
5807,47,18,-33.18
5808,46,16,-32.56
5810,45,3,-35.9
5811,45,-2,-35.24
5812,45,-8,-34.58
5813,44,-30,-33.94
5815,44,-41,-37.26
5816,44,-35,-36.58
5817,44,-31,-35.9
5818,44,8,-35.23
5820,44,21,-36.54
5821,44,17,-35.85
5822,44,20,-35.16
5823,44,19,-34.54
5825,44,10,-33.92
5826,44,-20,-33.3
5827,45,-35,-37.63
5828,45,-34,-36.92
5830,45,-22,-36.21
5831,45,1,-35.5
5832,46,22,-30.86
5833,46,30,-30.22
5835,47,32,-29.58
5836,47,25,-28.94
5837,48,17,-28.34
5838,49,-27,-32.69
5840,49,-26,-32.04
5841,49,-25,-31.39
5842,50,-14,-30.74
5843,50,-11,-30.11
5845,50,-7,-31.46
5846,50,-1,-30.81
5847,50,4,-30.16
5848,50,15,-29.56
5850,49,34,-28.96
5851,49,23,-28.36
5852,48,20,-27.76
5853,47,15,-27.16
5855,47,9,-28.51
5856,46,6,-27.86
5857,46,1,-27.21
5858,46,-20,-26.56
5860,46,-35,-27.92
5861,46,-29,-27.28
5862,46,-22,-26.64
5863,46,12,-26
5865,46,22,-26.42
5866,46,21,-25.84
5867,46,19,-25.26
5868,46,16,-24.68
5870,46,10,-28.07
5871,46,5,-27.46
5872,46,0,-26.85
5873,46,-21,-26.24
5875,47,-39,-25.65
5876,48,-28,-25.06
5877,49,-14,-24.47
5878,50,20,-23.91
5880,53,24,-25.33
5881,56,21,-24.75
5882,60,-14,-24.17
5883,64,21,-23.62
5885,68,-16,-22.08
5886,71,-14,-21.54
5887,74,-14,-21
5888,77,-5,-20.49
5890,78,-4,-24.93
5891,76,-2,-24.37
5892,73,5,-23.81
5893,68,4,-23.25
5895,63,-2,-22.68
5896,58,2,-22.11
5897,52,5,-21.54
5898,47,3,-20.97
5900,48,5,-21.47
5901,54,3,-20.97
5902,66,-1,-20.47
5903,81,-4,-19.97
5905,108,1,-19.51
5906,144,0,-19.05
5907,188,2,-18.59
5908,237,-2,-18.13
5910,300,2,-18.67
5911,373,6,-18.21
5912,454,7,-17.75
5913,541,2,-17.29
5915,636,7,-14.89
5916,737,2,-14.49
5917,841,4,-14.09
5918,948,3,-13.69
5920,1051,-2,-17.28
5921,1151,2,-16.87
5922,1246,-6,-16.46
5923,1336,8,-16.05
5925,1413,27,-16.64
5926,1478,20,-16.23
5927,1532,19,-15.82
5928,1576,17,-15.41
5930,1605,11,-16.02
5931,1620,2,-15.63
5932,1624,0,-15.24
5933,1618,-12,-14.85
5935,1599,-23,-15.49
5936,1570,-17,-15.13
5937,1531,-8,-14.77
5938,1485,19,-14.41
5940,1432,45,-10.13
5941,1372,33,-9.85
5942,1307,25,-9.57
5943,1240,17,-9.29
5945,1168,9,-11.01
5946,1093,4,-10.73
5947,1017,-6,-10.45
5948,941,-36,-10.17
5950,864,-52,-13.85
5951,787,-43,-13.53
5952,712,-35,-13.26
5953,638,-10,-12.99
5955,566,9,-12.72
5956,496,9,-12.45
5957,427,12,-12.14
5958,362,11,-7.87
5960,298,10,-7.6
5961,238,-15,-7.33
5962,181,-22,-13
5963,127,-19,-12.72
5965,76,-22,-12.44
5966,29,-9,-12.16
5967,-13,30,-14.85
5968,-54,23,-14.54
5970,-91,26,-14.25
5971,-124,16,-13.96
5972,-155,10,-13.67
5973,-182,-35,-15.36
5975,-206,-32,-15.05
5976,-228,-25,-14.74
5977,-246,-25,-14.43
5978,-262,-20,-14.12
5980,-276,-11,-15.81
5981,-288,-7,-15.5
5982,-297,0,-15.19
5983,-305,21,-14.88
5985,-311,35,-16.57
5986,-316,28,-16.26
5987,-319,23,-15.95
5988,-321,16,-15.64
5990,-323,11,-20.29
5991,-323,4,-19.94
5992,-323,2,-19.59
5993,-322,-34,-19.24
5995,-320,-54,-21.9
5996,-318,-36,-21.56
5997,-316,-32,-21.22
5998,-313,13,-20.88
6000,-310,33,-26.48
6001,-307,31,-26.08
6002,-304,32,-25.68
6003,-300,27,-25.28
6005,-297,-24,-26.88
6006,-293,-21,-26.48
6007,-290,-24,-26.08
6008,-286,-7,-25.68
6010,-283,-3,-29.23
6011,-280,-3,-28.78
6012,-278,5,-28.33
6013,-276,9,-27.88
6015,-274,5,-33.42
6016,-272,-13,-32.96
6017,-270,10,-32.5
6018,-268,0,-32.04
6020,-267,4,-35.54
6021,-266,14,-35.04
6022,-265,9,-34.54
6023,-264,11,-34.04
6025,-263,8,-32.56
6026,-263,12,-32.08
6027,-262,2,-31.6
6028,-262,2,-31.12
6030,-262,-1,-32.62
6031,-261,-8,-32.12
6032,-260,-4,-31.62
6033,-260,-3,-31.12
6035,-259,-2,-36.57
6036,-258,-4,-36.02
6037,-258,-2,-35.47
6038,-257,2,-34.92
6040,-256,2,-34.35
6041,-255,-2,-33.78
6042,-253,1,-33.21
6043,-252,18,-32.64
6045,-251,26,-31.12
6046,-250,24,-30.6
6047,-249,24,-30.08
6048,-248,13,-29.56
6050,-247,11,-30.04
6051,-245,3,-29.52
6052,-244,-2,-29
6053,-243,-23,-28.48
6055,-241,-32,-25
6056,-240,-23,-24.52
6057,-238,-23,-24.04
6058,-237,-9,-23.56
6060,-235,20,-29.03
6061,-234,20,-28.5
6062,-232,20,-27.97
6063,-231,14,-27.44
6065,-229,8,-23.9
6066,-228,4,-23.36
6067,-227,-1,-22.82
6068,-226,-25,-22.28
6070,-224,-37,-20.77
6071,-223,-35,-20.26
6072,-222,-22,-19.75
6073,-221,12,-19.24
6075,-220,22,-21.74
6076,-218,22,-21.24
6077,-216,27,-20.74
6078,-215,18,-16.28
6080,-213,15,-15.82
6081,-211,-12,-15.36
6082,-209,-35,-16.88
6083,-207,-28,-16.36
6085,-206,-11,-15.84
6086,-204,-2,-15.32
6087,-203,28,-14.86
6088,-201,24,-16.38
6090,-200,20,-15.9
6091,-198,22,-15.42
6092,-197,1,-14.97
6093,-196,-40,-17.49
6095,-194,-25,-17.01
6096,-193,-16,-16.53
6097,-192,-16,-16.05
6098,-191,-8,-15.59
6100,-189,2,-12.16
6101,-188,10,-11.73
6102,-188,9,-11.3
6103,-187,26,-10.87
6105,-187,34,-12.44
6106,-186,26,-12.01
6107,-186,24,-11.58
6108,-186,13,-11.15
6110,-186,6,-12.72
6111,-187,0,-12.29
6112,-188,-3,-11.86
6113,-189,-33,-11.43
6115,-190,-46,-12.04
6116,-191,-31,-11.65
6117,-192,-31,-11.26
6118,-193,-12,-10.87
6120,-194,25,-13.48
6121,-194,-18,-13.09
6122,-195,34,-12.7
6123,-195,34,-12.31
6125,-195,22,-7.03
6126,-196,15,-6.75
6127,-196,-11,-6.47
6128,-197,-20,-6.19
6130,-198,-22,-8.9
6131,-198,-19,-8.61
6132,-199,-13,-8.32
6133,-200,-16,-8.03
6135,-201,-4,-4.81
6136,-201,6,-4.59
6137,-202,4,-4.37
6138,-203,5,-4.15
6140,-204,12,-1.02
6141,-205,6,-0.89
6142,-206,-2,-0.76
6143,-207,-2,-0.63
6145,-208,10,2.43
6146,-209,11,2.49
6147,-210,12,2.55
6148,-211,2,2.61
6150,-212,4,5.65
6151,-213,47,5.69
6152,-214,31,5.73
6153,-216,32,5.77
6155,-217,21,9.75
6156,-218,11,9.73
6157,-219,6,9.71
6158,-221,-18,9.69
6160,-222,-43,16.54
6161,-224,-30,16.39
6162,-225,-23,16.24
6163,-226,-24,16.09
6165,-228,-21,23.86
6166,-229,-21,23.63
6167,-231,2,23.4
6168,-232,9,23.17
6170,-233,7,31.86
6171,-234,12,31.55
6172,-235,6,31.24
6173,-236,11,30.93
6175,-237,9,35.56
6176,-237,3,35.19
6177,-238,-1,34.82
6178,-238,18,34.45
6180,-238,28,44.01
6181,-238,26,43.57
6182,-238,18,43.13
6183,-238,14,42.69
6185,-237,6,50.11
6186,-236,1,49.53
6187,-235,-7,48.95
6188,-233,-24,48.37
6190,-232,-33,56.73
6191,-230,-32,56.09
6192,-229,-19,55.45
6193,-227,-16,54.81
6195,-225,24,64.08
6196,-223,20,63.35
6197,-221,19,62.62
6198,-219,13,61.89
6200,-216,8,70.04
6201,-214,6,69.19
6202,-211,-3,68.34
6203,-208,-13,67.53
6205,-205,-42,79.59
6206,-201,-28,78.65
6207,-198,-19,77.69
6208,-194,5,76.73
6210,-191,21,86.66
6211,-187,19,85.59
6212,-183,21,84.52
6213,-179,14,92.34
6215,-174,10,91.16
6216,-170,-24,89.98
6217,-166,-40,100.68
6218,-161,-38,99.35
6220,-157,-29,98.02
6221,-152,-24,96.69
6222,-148,28,95.36
6223,-143,27,105.91
6225,-139,24,104.49
6226,-134,22,103.07
6227,-130,15,101.65
6228,-126,10,100.23
6230,-122,-1,105.72
6231,-117,-21,104.21
6232,-114,-76,102.7
6233,-110,-50,101.19
6235,-106,-23,106.59
6236,-102,15,104.99
6237,-99,25,103.39
6238,-95,52,101.79
6240,-92,68,110.08
6241,-88,58,108.37
6242,-85,46,106.66
6243,-81,24,104.95
6245,-78,-4,111.13
6246,-74,-13,109.31
6247,-71,-18,107.49
6248,-68,-50,105.67
6250,-64,-64,111.82
6251,-60,-40,109.97
6252,-57,-22,108.12
6253,-53,-8,106.27
6255,-49,1,113.3
6256,-46,44,111.33
6257,-42,7,109.36
6258,-39,39,107.39
6260,-36,-8,112.38
6261,-33,-10,110.37
6262,-31,-10,108.36
6263,-28,-1,106.35
6265,-25,-2,112.29
6266,-22,6,110.23
6267,-18,6,108.17
6268,-14,4,106.11
6270,-11,0,111.01
6271,-7,3,108.91
6272,-3,10,106.81
6273,0,9,104.71
6275,2,8,108.58
6276,6,12,106.45
6277,9,8,104.32
6278,12,7,102.19
6280,15,3,108.02
6281,18,2,105.85
6282,20,2,103.68
6283,23,-2,101.51
6285,25,-17,103.37
6286,28,-8,101.23
6287,30,-2,99.09
6288,32,-2,96.95
6290,34,-1,102.81
6291,36,-7,100.67
6292,38,-3,98.53
6293,40,-6,96.39
6295,41,-9,98.3
6296,43,-20,96.21
6297,44,-8,94.12
6298,46,8,92.03
6300,47,25,93.95
6301,48,25,91.87
6302,50,19,89.79
6303,51,15,87.71
6305,52,15,86.72
6306,53,5,84.73
6307,54,3,82.74
6308,55,-30,80.75
6310,56,-40,78.84
6311,57,-22,76.93
6312,57,-18,75.02
6313,58,7,73.11
6315,58,23,74.26
6316,59,21,72.41
6317,59,22,70.56
6318,60,23,64.75
6320,60,10,63.04
6321,60,-11,61.33
6322,60,-23,64.57
6323,60,-35,62.81
6325,60,-18,61.14
6326,59,-11,59.47
6327,59,38,57.8
6328,59,28,56.13
6330,59,14,54.59
6331,59,22,53.05
6332,59,3,51.51
6333,60,-23,49.97
6335,59,-25,49.53
6336,59,-15,48.09
6337,59,-10,46.65
6338,58,-4,45.3
6340,58,2,36.03
6341,57,2,34.76
6342,56,8,33.61
6343,56,23,32.46
6345,55,28,32.3
6346,54,28,31.14
6347,54,13,29.98
6348,53,5,28.94
6350,53,5,22.95
6351,52,-2,21.96
6352,52,-9,20.97
6353,52,-26,19.98
6355,52,-39,14.11
6356,52,-26,13.24
6357,52,-20,12.37
6358,52,2,11.5
6360,52,22,9.71
6361,52,19,8.92
6362,52,20,8.13
6363,52,16,7.34
6365,52,14,3.68
6366,52,5,3.02
6367,52,0,2.36
6368,53,-27,1.7
6370,53,-40,0.13
6371,54,-27,-0.44
6372,55,-12,-1.01
6373,55,14,-1.58
6375,56,25,-10.98
6376,57,22,-11.38
6377,58,-3,-11.78
6378,58,-14,-12.18
6380,59,-16,-13.48
6381,60,-18,-13.78
6382,61,-11,-14.08
6383,62,1,-14.38
6385,62,-9,-19.56
6386,63,7,-19.74
6387,63,7,-19.92
6388,64,2,-20.1
6390,64,-1,-22.18
6391,65,-6,-22.26
6392,65,-11,-22.34
6393,66,-8,-22.42
6395,66,-6,-26.39
6396,67,-1,-26.36
6397,68,-6,-26.33
6398,69,-8,-26.3
6400,70,-5,-27.2
6401,71,4,-27.1
6402,72,5,-27
6403,73,-1,-26.9
6405,73,1,-30.68
6406,74,-2,-30.46
6407,75,13,-30.24
6408,75,3,-30.02
6410,76,-9,-29.76
6411,76,14,-29.5
6412,77,10,-29.24
6413,77,9,-28.98
6415,77,8,-30.62
6416,77,8,-30.26
6417,78,8,-29.9
6418,78,-1,-29.54
6420,78,-2,-28.15
6421,79,2,-27.76
6422,79,10,-27.37
6423,80,0,-26.98
6425,80,1,-28.53
6426,81,6,-28.08
6427,81,0,-27.63
6428,81,8,-27.18
6430,81,5,-28.7
6431,80,6,-28.22
6432,80,3,-27.74
6433,80,26,-27.26
6435,80,32,-27.77
6436,79,22,-27.28
6437,78,8,-26.79
6438,77,10,-26.3
6440,76,-3,-28.75
6441,75,-6,-28.2
6442,74,-9,-27.65
6443,74,-5,-27.14
6445,73,-32,-27.62
6446,72,-30,-27.1
6447,71,-23,-26.53
6448,71,-12,-25.96
6450,70,24,-24.4
6451,69,22,-23.84
6452,69,25,-23.28
6453,68,19,-22.72
6455,67,16,-24.14
6456,67,15,-23.56
6457,66,5,-22.98
6458,65,-13,-22.4
6460,65,-30,-24.78
6461,65,-27,-24.16
6462,65,-14,-23.54
6463,65,-18,-22.92
6465,65,18,-20.4
6466,65,26,-19.88
6467,66,21,-19.36
6468,66,16,-18.84
6470,67,4,-14.35
6471,68,7,-13.86
6472,69,-3,-13.37
6473,70,-7,-12.88
6475,71,-41,-20.36
6476,72,-31,-19.84
6477,73,-19,-19.32
6478,73,-18,-18.8
6480,74,20,-21.3
6481,75,19,-20.8
6482,75,23,-20.3
6483,75,17,-20.79
6485,76,14,-20.29
6486,76,-21,-19.79
6487,76,-25,-14.34
6488,76,-25,-13.89
6490,75,-13,-13.47
6491,75,-1,-13.05
6492,74,30,-12.63
6493,73,29,-14.19
6495,72,29,-13.76
6496,70,29,-13.33
6497,69,24,-12.9
6498,67,9,-12.47
6500,65,5,-19.06
6501,63,-1,-18.65
6502,61,-28,-18.24
6503,59,-28,-17.83
6505,56,-23,-15.45
6506,54,-23,-15.07
6507,51,-13,-14.69
6508,48,-12,-14.31
6510,45,-2,-17.94
6511,42,-5,-17.57
6512,39,-1,-17.2
6513,37,3,-16.83
6515,34,-4,-13.51
6516,32,-2,-13.19
6517,31,-7,-12.87
6518,29,-7,-12.55
6520,28,4,-15.24
6521,27,2,-14.93
6522,26,5,-14.62
6523,25,-2,-14.31
6525,25,4,-16.98
6526,24,-3,-16.65
6527,24,-6,-16.32
6528,23,-2,-15.99
6530,23,-1,-18.67
6531,24,4,-18.35
6532,24,6,-18.03
6533,25,10,-17.71
6535,26,8,-11.45
6536,27,0,-11.19
6537,29,5,-10.93
6538,30,1,-10.67
6540,32,40,-17.36
6541,35,34,-17.05
6542,37,26,-16.74
6543,40,19,-16.43
6545,43,15,-16.11
6546,47,7,-15.79
6547,50,6,-15.47
6548,55,-3,-15.15
6550,59,-39,-18.81
6551,63,-30,-18.47
6552,68,-18,-18.13
6553,73,-21,-17.79
6555,77,17,-19.45
6556,81,16,-19.11
6557,85,14,-18.77
6558,89,16,-18.43
6560,92,4,-22.06
6561,95,-1,-21.69
6562,97,-3,-21.32
6563,100,-5,-20.95
6565,101,-44,-24.57
6566,103,-32,-24.19
6567,104,-19,-23.81
6568,104,-11,-23.43
6570,104,18,-26.03
6571,104,19,-25.63
6572,104,18,-25.23
6573,103,19,-29.78
6575,103,12,-29.32
6576,103,-30,-28.86
6577,103,-39,-33.35
6578,103,-46,-32.84
6580,103,-33,-32.35
6581,102,-19,-31.86
6582,102,36,-31.37
6583,101,42,-35.83
6585,101,39,-35.32
6586,100,29,-34.81
6587,99,11,-34.3
6588,98,-34,-33.79
6590,97,-25,-36.23
6591,96,-22,-35.67
6592,94,-2,-35.11
6593,93,6,-34.55
6595,91,14,-43.85
6596,90,17,-43.15
6597,89,26,-42.45
6598,87,11,-41.75
6600,86,57,-43.11
6601,85,46,-42.47
6602,84,25,-41.83
6603,84,15,-41.19
6605,83,5,-45.53
6606,82,-1,-44.87
6607,82,-16,-44.21
6608,81,-21,-43.56
6610,81,-52,-46.87
6611,80,-47,-46.18
6612,79,-40,-45.44
6613,79,-41,-44.7
6615,78,17,-47.92
6616,78,21,-47.14
6617,77,18,-46.36
6618,77,22,-45.6
6620,77,19,-50.78
6621,77,14,-49.96
6622,77,6,-49.14
6623,77,2,-48.32
6625,76,-41,-53.51
6626,76,-32,-52.7
6627,76,-17,-51.89
6628,76,19,-51.08
6630,76,19,-49.26
6631,76,13,-48.44
6632,76,18,-47.62
6633,76,-28,-46.8
6635,76,-17,-52.95
6636,76,-18,-52.1
6637,76,-11,-51.25
6638,76,-10,-50.4
6640,76,4,-53.48
6641,75,10,-52.56
6642,75,15,-51.64
6643,74,5,-50.72
6645,74,6,-51.81
6646,73,-15,-50.9
6647,72,6,-49.99
6648,71,-1,-49.08
6650,70,6,-52.16
6651,70,1,-51.24
6652,70,0,-50.32
6653,70,4,-49.4
6655,70,2,-52.47
6656,70,7,-51.54
6657,70,-2,-50.61
6658,70,-9,-49.68
6660,70,-13,-52.65
6661,70,-22,-51.62
6662,70,-9,-50.59
6663,70,-11,-49.56
6665,70,-16,-50.58
6666,70,-1,-49.6
6667,70,2,-48.62
6668,70,-3,-47.64
6670,70,7,-47.65
6671,70,3,-46.66
6672,70,3,-45.67
6673,70,-4,-44.68
6675,70,39,-47.69
6676,69,33,-46.7
6677,69,27,-45.71
6678,69,21,-44.72
6680,68,21,-42.76
6681,67,12,-41.8
6682,66,6,-40.84
6683,65,1,-39.88
6685,64,-34,-43.91
6686,63,-33,-42.94
6687,62,-20,-41.97
6688,61,-20,-41
6690,60,22,-42.05
6691,59,22,-41.1
6692,58,20,-40.15
6693,57,21,-39.2
6695,56,13,-42.24
6696,56,9,-41.28
6697,55,3,-40.32
6698,55,-2,-39.41
6700,55,-53,-38.5
6701,55,-44,-37.59
6702,55,-31,-36.73
6703,55,-28,-35.87
6705,55,29,-39.96
6706,55,26,-39.05
6707,55,21,-38.14
6708,55,30,-42.23
6710,56,19,-41.32
6711,56,1,-40.41
6712,57,-43,-38.51
6713,59,-36,-37.61
6715,61,-27,-36.74
6716,64,-18,-35.87
6717,67,-5,-35
6718,71,40,-37.1
6720,76,38,-36.3
6721,81,36,-35.5
6722,87,39,-34.7
6723,93,16,-33.9
6725,98,-12,-32.13
6726,101,-16,-31.36
6727,103,-4,-30.59
6728,105,-7,-29.82
6730,104,-2,-27.12
6731,101,-1,-26.42
6732,97,9,-25.72
6733,92,1,-25.02
6735,89,44,-27.33
6736,87,30,-26.64
6737,88,13,-25.95
6738,89,11,-25.26
6740,99,3,-22.63
6741,116,1,-22
6742,138,-5,-21.37
6743,165,-13,-20.74
6745,206,-46,-20.17
6746,257,-40,-19.6
6747,317,-19,-19.03
6748,383,-16,-18.46
6750,461,17,-17.95
6751,548,18,-17.44
6752,641,-25,-16.93
6753,739,-18,-16.42
6755,841,-22,-16.89
6756,944,-11,-16.36
6757,1048,-8,-15.83
6758,1151,-7,-15.3
6760,1246,-4,-13.85
6761,1334,2,-13.4
6762,1415,16,-12.95
6763,1489,8,-12.5
6765,1549,13,-11.1
6766,1596,6,-10.7
6767,1631,4,-10.3
6768,1657,9,-9.9
6770,1668,8,-10.51
6771,1666,18,-10.12
6772,1653,13,-9.73
6773,1632,5,-9.34
6775,1599,12,-12.95
6776,1557,7,-12.56
6777,1507,6,-12.17
6778,1453,6,-11.78
6780,1391,2,-10.44
6781,1324,0,-10.1
6782,1253,-5,-9.76
6783,1181,-4,-9.42
6785,1105,-6,-11.1
6786,1028,-2,-10.78
6787,951,-8,-10.46
6788,874,-4,-10.14
6790,798,-8,-11.82
6791,723,-9,-11.5
6792,650,-13,-11.18
6793,579,-6,-10.86
6795,511,21,-17.48
6796,444,20,-17.1
6797,381,15,-16.72
6798,320,12,-16.34
6800,263,11,-16.99
6801,209,7,-16.64
6802,159,2,-16.29
6803,112,1,-15.94
6805,68,-37,-17.56
6806,28,-23,-17.18
6807,-9,-12,-16.8
6808,-43,-18,-16.42
6810,-74,21,-19.06
6811,-102,24,-18.7
6812,-128,16,-18.34
6813,-151,21,-17.98
6815,-172,10,-22.59
6816,-190,5,-22.2
6817,-206,1,-21.81
6818,-220,-4,-21.42
6820,-232,-54,-27.01
6821,-242,-50,-26.6
6822,-251,-20,-26.19
6823,-258,-33,-25.78
6825,-263,29,-31.31
6826,-267,27,-30.84
6827,-270,26,-30.37
6828,-272,11,-31.88
6830,-273,18,-31.44
6831,-274,-9,-31
6832,-274,-37,-37.49
6833,-273,-33,-37.03
6835,-273,-24,-36.57
6836,-271,-19,-36.11
6837,-270,41,-35.64
6838,-268,34,-36.16
6840,-267,31,-35.68
6841,-265,28,-35.2
6842,-263,-10,-34.72
6843,-262,-16,-34.27
6845,-260,-22,-40.75
6846,-258,-18,-40.23
6847,-255,-9,-39.71
6848,-253,4,-39.19
6850,-251,9,-35.69
6851,-248,16,-35.19
6852,-245,13,-34.69
6853,-242,6,-34.19
6855,-239,43,-36.64
6856,-237,33,-36.09
6857,-235,16,-35.54
6858,-233,12,-34.99
6860,-231,14,-39.42
6861,-229,4,-38.85
6862,-227,0,-38.28
6863,-226,-4,-37.71
6865,-224,-33,-37.12
6866,-223,-31,-36.53
6867,-221,-15,-35.94
6868,-220,-15,-35.35
6870,-218,22,-40.7
6871,-216,17,-40.05
6872,-215,13,-39.4
6873,-213,14,-38.75
6875,-211,8,-35.13
6876,-209,9,-34.51
6877,-208,-38,-33.89
6878,-206,-33,-33.27
6880,-205,-20,-30.68
6881,-203,-17,-30.09
6882,-202,-5,-29.5
6883,-201,-10,-28.91
6885,-199,1,-30.29
6886,-198,8,-29.67
6887,-197,11,-29.05
6888,-195,5,-28.43
6890,-194,14,-25.82
6891,-192,4,-25.21
6892,-190,4,-24.6
6893,-189,5,-23.99
6895,-187,8,-24.38
6896,-185,5,-23.77
6897,-184,-1,-23.16
6898,-182,0,-22.55
6900,-180,-7,-20
6901,-178,-12,-19.45
6902,-176,-10,-18.9
6903,-174,-9,-18.35
6905,-172,-12,-17.79
6906,-170,-10,-17.23
6907,-168,-2,-16.67
6908,-167,0,-16.11
6910,-165,-6,-14.58
6911,-164,0,-14.05
6912,-163,-1,-13.52
6913,-161,2,-12.99
6915,-160,35,-12.48
6916,-159,27,-11.97
6917,-158,20,-11.46
6918,-157,17,-10.95
6920,-156,14,-17.44
6921,-154,8,-16.93
6922,-153,6,-16.42
6923,-152,1,-15.91
6925,-151,-28,-16.4
6926,-149,-18,-15.89
6927,-148,-11,-15.38
6928,-148,-16,-14.87
6930,-147,31,-8.44
6931,-146,23,-8.01
6932,-145,24,-7.58
6933,-144,18,-7.15
6935,-143,13,-11.7
6936,-142,2,-11.25
6937,-142,-4,-10.8
6938,-141,-12,-10.35
6940,-141,-49,-10.94
6941,-141,-39,-10.53
6942,-141,-17,-10.12
6943,-142,-13,-9.71
6945,-142,25,-12.33
6946,-143,21,-11.95
6947,-144,20,-11.57
6948,-144,23,-9.21
6950,-145,16,-8.91
6951,-145,8,-8.61
6952,-145,-20,-8.31
6953,-146,-22,-9.02
6955,-146,-13,-8.73
6956,-146,-23,-8.44
6957,-147,31,-8.22
6958,-147,25,-8
6960,-147,13,-7.78
6961,-147,16,-7.56
6962,-148,-18,-7.34
6963,-148,-38,-7.13
6965,-148,-26,-10.88
6966,-148,-28,-10.63
6967,-148,-36,-10.38
6968,-148,-20,-10.13
6970,-148,-10,-5
6971,-148,-4,-4.87
6972,-149,-1,-4.74
6973,-149,6,-4.61
6975,-150,42,-4.45
6976,-151,37,-4.29
6977,-151,29,-4.13
6978,-152,23,-3.97
6980,-152,17,-0.87
6981,-153,14,-0.77
6982,-154,5,-0.67
6983,-155,-1,-0.57
6985,-155,-37,4.43
6986,-156,-30,4.43
6987,-157,-18,4.43
6988,-157,-30,4.43
6990,-158,27,7.4
6991,-158,22,7.37
6992,-159,19,7.34
6993,-159,20,7.31
6995,-160,18,10.19
6996,-160,10,10.07
6997,-161,5,9.95
6998,-161,-1,9.83
7000,-162,-36,14.69
7001,-162,-32,14.55
7002,-163,-22,14.41
7003,-163,-8,14.27
7005,-164,20,23.06
7006,-164,-10,22.85
7007,-165,30,22.64
7008,-165,30,22.43
7010,-165,-12,30.12
7011,-165,-14,29.81
7012,-165,-6,29.5
7013,-165,-2,29.19
7015,-165,-7,35.83
7016,-164,-8,35.47
7017,-164,6,35.11
7018,-164,3,34.75
7020,-163,4,45.27
7021,-163,3,44.79
7022,-162,-3,44.31
7023,-161,-6,43.83
7025,-160,-4,48.32
7026,-158,0,47.81
7027,-157,0,47.3
7028,-155,-2,46.79
7030,-153,1,57.17
7031,-150,5,56.55
7032,-147,3,55.93
7033,-144,-6,55.31
7035,-141,-1,65.59
7036,-138,-19,64.87
7037,-134,-3,64.15
7038,-131,-4,63.43
7040,-127,-2,76.57
7041,-123,10,75.71
7042,-120,16,74.85
7043,-117,12,73.99
7045,-113,14,80.98
7046,-109,9,79.97
7047,-105,13,78.96
7048,-101,4,77.95
7050,-96,33,90.79
7051,-92,25,89.63
7052,-87,16,88.47
7053,-83,8,87.31
7055,-78,-4,97.1
7056,-73,-8,95.89
7057,-68,-8,94.68
7058,-64,-10,93.47
7060,-59,-67,106.07
7061,-55,-44,104.67
7062,-50,-32,103.27
7063,-46,-39,101.87
7065,-41,18,110.36
7066,-36,22,108.85
7067,-32,26,107.34
7068,-27,29,105.83
7070,-22,22,118.15
7071,-17,15,116.47
7072,-12,-15,114.79
7073,-7,-9,124.02
7075,-3,-5,122.25
7076,1,-4,120.48
7077,6,28,118.71
7078,10,33,116.93
7080,15,27,124.06
7081,20,23,122.19
7082,24,5,120.32
7083,29,-1,118.45
7085,33,-4,124.5
7086,37,-10,122.55
7087,41,-9,120.6
7088,45,-6,118.65
7090,49,-48,127.55
7091,53,-31,125.45
7092,56,-11,123.35
7093,60,-15,121.25
7095,63,29,129.1
7096,67,28,126.95
7097,71,24,124.8
7098,74,18,122.65
7100,78,14,129.41
7101,81,6,127.17
7102,85,6,124.93
7103,88,1,122.69
7105,92,-26,128.4
7106,95,-22,126.11
7107,98,-15,123.82
7108,102,17,121.53
7110,105,26,119.29
7111,108,21,122
7112,111,16,119.71
7113,115,18,117.42
7115,118,6,115.16
7116,122,-3,119.83
7117,125,-8,117.5
7118,129,-22,115.17
7120,133,-38,116.83
7121,136,-36,114.49
7122,140,-20,112.15
7123,144,11,109.81
7125,147,22,107.52
7126,151,26,110.18
7127,155,-22,107.84
7128,159,-10,105.5
7130,163,-7,111.17
7131,167,-12,108.84
7132,170,-7,106.51
7133,174,-10,104.18
7135,177,-3,99.95
7136,181,2,97.72
7137,184,5,95.49
7138,186,-6,93.26
7140,189,1,95.06
7141,193,-6,92.86
7142,196,5,90.66
7143,199,-2,88.46
7145,202,-15,86.37
7146,205,-1,90.22
7147,208,-8,88.07
7148,210,1,85.92
7150,213,3,83.82
7151,215,12,80.73
7152,217,1,78.64
7153,218,3,76.55
7155,220,2,74.57
7156,221,-6,73.58
7157,223,4,71.59
7158,224,-2,69.6
7160,226,0,67.72
7161,227,-2,64.85
7162,229,-6,62.98
7163,230,1,61.11
7165,231,2,59.38
7166,233,-4,53.69
7167,234,-1,52
7168,235,12,50.31
7170,236,35,48.7
7171,237,29,50.06
7172,239,18,48.42
7173,240,17,46.78
7175,241,14,45.28
7176,242,7,39.82
7177,243,9,38.36
7178,244,-13,36.9
7180,245,-32,35.55
7181,246,-24,36.18
7182,247,-19,34.81
7183,247,5,33.44
7185,248,18,32.21
7186,248,16,27.02
7187,249,21,25.83
7188,249,13,24.64
7190,249,11,23.55
7191,250,4,22.46
7192,250,-2,21.37
7193,250,-13,20.28
7195,251,-31,19.33
7196,251,-27,15.41
7197,251,-9,14.49
7198,252,-5,13.68
7200,252,22,12.87
7201,252,30,9.09
7202,252,21,8.31
7203,253,13,8.52
7205,253,13,7.82
7206,254,-11,7.12
7207,255,-40,6.42
7208,256,-31,2.75
7210,257,-23,2.16
7211,259,-9,1.57
7212,260,22,0.98
7213,262,27,0.39
7215,264,24,-3.06
7216,265,21,-3.51
7217,267,-16,-3.96
7218,268,-25,-4.41
7220,269,-26,-8.72
7221,270,-30,-9.03
7222,270,-34,-9.34
7223,270,-16,-9.65
7225,270,-14,-9.87
7226,271,1,-17.02
7227,271,-8,-17.17
7228,272,18,-17.32
7230,272,39,-17.39
7231,273,36,-22.41
7232,274,28,-22.43
7233,275,21,-22.45
7235,276,12,-22.47
7236,277,8,-28.38
7237,278,4,-28.29
7238,279,-24,-28.2
7240,280,-55,-28.11
7241,281,-32,-37.85
7242,282,-31,-37.59
7243,283,8,-37.33
7245,284,31,-37.03
7246,284,30,-43.66
7247,285,32,-43.29
7248,285,27,-42.92
7250,286,21,-42.55
7251,286,10,-52.03
7252,286,-38,-51.51
7253,287,-26,-50.99
7255,287,-19,-55.34
7256,287,-8,-54.69
7257,288,-5,-54.04
7258,288,-21,-53.39
7260,288,-1,-52.76
7261,288,-5,-60.05
7262,288,6,-59.34
7263,288,-7,-58.63
7265,288,-2,-57.88
7266,287,6,-64.06
7267,287,1,-63.24
7268,287,-3,-62.42
7270,287,4,-61.6
7271,287,4,-69.63
7272,287,1,-68.66
7273,287,-2,-67.69
7275,287,1,-66.72
7276,287,-2,-67.74
7277,287,3,-66.76
7278,287,1,-65.78
7280,288,-3,-64.8
7281,288,5,-68.76
7282,288,5,-67.72
7283,287,5,-66.68
7285,287,10,-65.64
7286,287,8,-68.57
7287,286,9,-67.5
7288,286,0,-66.43
7290,285,6,-65.36
7291,285,45,-66.31
7292,284,38,-65.26
7293,284,27,-64.21
7295,284,20,-63.16
7296,283,15,-61.09
7297,283,7,-60.02
7298,283,-12,-58.95
7300,282,-35,-57.88
7301,282,-31,-59.82
7302,281,-20,-58.76
7303,280,-6,-57.7
7305,280,19,-56.64
7306,279,15,-57.54
7307,279,12,-56.44
7308,278,9,-55.34
7310,278,4,-54.24
7311,278,-3,-52.19
7312,279,-1,-51.14
7313,279,-22,-50.09
7315,280,-42,-49.04
7316,280,-29,-47
7317,281,-24,-45.96
7318,281,9,-44.92
7320,281,30,-43.88
7321,281,-15,-44.85
7322,281,36,-43.82
7323,281,24,-42.79
7325,282,17,-41.76
7326,282,11,-43.73
7327,282,-16,-42.7
7328,282,-33,-41.66
7330,282,-26,-40.62
7331,282,-20,-36.61
7332,282,-25,-35.6
7333,282,-4,-34.62
7335,281,29,-33.64
7336,280,24,-36.62
7337,279,23,-35.6
7338,278,16,-35.57
7340,276,10,-34.57
7341,274,-26,-33.57
7342,272,-44,-32.57
7343,270,-42,-31.57
7345,267,-24,-30.61
7346,265,-7,-29.65
7347,263,34,-28.69
7348,260,35,-27.73
7350,258,34,-32.71
7351,256,29,-31.76
7352,253,20,-30.81
7353,251,12,-29.86
7355,249,5,-28.91
7356,247,2,-27.02
7357,245,0,-26.13
7358,243,-14,-25.24
7360,242,-48,-24.35
7361,240,-29,-31.44
7362,239,-25,-30.53
7363,238,1,-29.62
7365,238,28,-28.71
7366,237,24,-29.88
7367,237,23,-29.05
7368,237,21,-28.22
7370,237,16,-27.39
7371,237,9,-26.63
7372,238,3,-25.87
7373,239,-15,-25.11
7375,240,-37,-24.35
7376,241,-22,-27.65
7377,242,-12,-26.95
7378,244,19,-26.25
7380,245,29,-25.6
7381,247,22,-26.93
7382,249,-24,-26.26
7383,252,27,-25.59
7385,255,-24,-24.92
7386,258,-12,-28.29
7387,261,-13,-27.66
7388,265,-10,-27.03
7390,268,-4,-26.4
7391,272,2,-24.85
7392,276,-4,-24.3
7393,279,-3,-23.75
7395,283,-9,-23.2
7396,286,1,-26.7
7397,289,0,-26.2
7398,292,4,-25.7
7400,295,5,-25.2
7401,298,2,-25.71
7402,301,8,-25.22
7403,303,7,-24.73
7405,305,6,-24.24
7406,307,3,-25.78
7407,308,-1,-25.32
7408,309,-3,-24.86
7410,310,5,-24.4
7411,310,-2,-23.98
7412,311,11,-23.56
7413,311,3,-23.14
7415,311,14,-22.72
7416,311,11,-29.25
7417,311,6,-28.78
7418,311,7,-28.31
7420,311,2,-27.84
7421,312,-2,-29.34
7422,312,-5,-28.84
7423,312,10,-28.34
7425,312,30,-27.84
7426,312,20,-32.32
7427,312,9,-31.8
7428,312,3,-31.28
7430,312,-2,-30.76
7431,312,0,-31.25
7432,312,-8,-30.74
7433,313,-17,-30.23
7435,313,-45,-29.72
7436,313,-34,-36.13
7437,314,-26,-35.54
7438,314,-4,-34.95
7440,314,24,-34.36
7441,314,20,-40.69
7442,314,18,-40.02
7443,313,18,-39.35
7445,313,15,-38.68
7446,312,6,-41.99
7447,312,2,-41.3
7448,311,-18,-40.61
7450,310,-39,-39.92
7451,310,-33,-42.23
7452,309,-28,-41.54
7453,309,-11,-40.85
7455,309,25,-40.16
7456,309,25,-47.36
7457,309,23,-46.56
7458,309,22,-47.74
7460,308,16,-46.92
7461,308,-8,-46.14
7462,307,-31,-45.36
7463,306,-34,-48.55
7465,305,-16,-47.74
7466,304,-2,-46.93
7467,302,9,-46.12
7468,301,32,-45.31
7470,299,30,-49.45
7471,297,26,-48.59
7472,296,2,-47.73
7473,295,-20,-46.87
7475,293,-16,-46.07
7476,292,-22,-52.2
7477,291,-18,-51.33
7478,290,-15,-50.46
7480,289,2,-49.59
7481,288,-3,-48.71
7482,288,2,-47.83
7483,287,9,-46.95
7485,286,33,-46.07
7486,285,32,-50.22
7487,284,24,-49.37
7488,283,11,-48.52
7490,282,13,-47.67
7491,281,8,-51.79
7492,280,5,-50.91
7493,279,-14,-50.03
7495,279,-35,-49.15
7496,278,-26,-51.24
7497,277,-28,-50.33
7498,276,-6,-49.42
7500,275,22,-48.51
7501,274,18,-48.63
7502,274,12,-47.75
7503,273,16,-46.87
7505,272,-28,-45.99
7506,272,-18,-43.15
7507,271,-17,-42.31
7508,270,-25,-41.47
7510,270,0,-40.63
7511,269,-13,-45.77
7512,268,7,-44.91
7513,267,4,-44.05
7515,267,3,-43.19
7516,266,-7,-45.29
7517,265,6,-44.39
7518,264,8,-43.49
7520,264,1,-42.59
7521,263,7,-42.72
7522,263,6,-41.85
7523,262,7,-40.98
7525,262,5,-40.11
7526,262,7,-41.23
7527,262,2,-40.35
7528,262,1,-39.47
7530,263,-4,-38.59
7531,263,-3,-41.69
7532,264,2,-40.79
7533,265,-7,-39.89
7535,266,-8,-38.99
7536,267,-3,-43.04
7537,268,1,-42.09
7538,268,3,-41.14
7540,268,2,-40.19
7541,269,5,-44.26
7542,269,1,-43.33
7543,269,6,-42.4
7545,269,36,-41.47
7546,270,23,-42.54
7547,270,15,-41.61
7548,271,13,-40.68
7550,271,7,-39.75
7551,272,4,-41.84
7552,273,-1,-40.93
7553,275,-11,-40.02
7555,277,-35,-39.11
7556,280,-27,-42.17
7557,284,-27,-41.23
7558,289,-5,-40.29
7560,294,20,-39.35
7561,300,19,-41.45
7562,306,20,-40.55
7563,312,17,-39.65
7565,319,14,-38.75
7566,323,9,-37.92
7567,325,2,-37.09
7568,325,-22,-36.26
7570,324,-38,-35.43
7571,321,-29,-36.62
7572,317,-15,-35.81
7573,311,6,-35
7575,304,25,-34.19
7576,302,27,-37.37
7577,304,20,-36.55
7578,309,21,-35.73
7580,325,14,-32.93
7581,349,-16,-32.21
7582,381,-23,-31.49
7583,429,-13,-34.75
7585,489,-15,-34.01
7586,560,1,-33.27
7587,638,33,-32.53
7588,721,23,-31.83
7590,814,18,-30.14
7591,913,25,-29.45
7592,1017,-10,-28.76
7593,1123,-28,-28.07
7595,1229,-19,-27.43
7596,1334,-17,-30.75
7597,1435,-13,-30.07
7598,1532,-16,-29.39
7600,1625,-8,-28.71
7601,1706,3,-29.09
7602,1775,5,-28.47
7603,1834,24,-27.85
7605,1884,41,-27.23
7606,1918,-2,-29.58
7607,1940,35,-28.93
7608,1950,28,-28.28
7610,1950,25,-27.63
7611,1937,14,-29.01
7612,1912,14,-28.39
7613,1878,-1,-27.77
7615,1836,-27,-27.15
7616,1784,-25,-31.53
7617,1726,-19,-30.91
7618,1662,-4,-30.29
7620,1595,22,-29.67
7621,1521,21,-30.07
7622,1444,15,-29.47
7623,1364,5,-28.87
7625,1283,-11,-28.27
7626,1201,-12,-33.62
7627,1118,-53,-32.97
7628,1036,-42,-32.32
7630,955,-35,-31.67
7631,876,-21,-31
7632,799,-23,-30.33
7633,724,-20,-29.66
7635,652,-7,-28.99
7636,583,-1,-35.31
7637,518,3,-34.63
7638,456,3,-33.95
7640,398,7,-33.27
7641,343,9,-36.58
7642,292,6,-35.89
7643,244,-3,-35.2
7645,201,1,-34.51
7646,160,-2,-37.79
7647,123,1,-37.07
7648,89,-14,-36.35
7650,58,-8,-35.63
7651,29,-12,-38.89
7652,4,-1,-38.15
7653,-18,-9,-37.41
7655,-38,-6,-36.67
7656,-56,-7,-42.9
7657,-72,-1,-42.13
7658,-85,4,-41.36
7660,-97,4,-40.59
7661,-106,-6,-42.84
7662,-114,-4,-42.09
7663,-121,11,-41.34
7665,-126,42,-40.59
7666,-129,31,-43.85
7667,-132,19,-43.11
7668,-134,15,-42.37
7670,-135,10,-41.63
7671,-135,4,-46.85
7672,-135,0,-46.07
7673,-134,-19,-45.29
7675,-133,-48,-44.51
7676,-132,-39,-49.7
7677,-131,-24,-48.89
7678,-129,11,-48.08
7680,-128,41,-47.27
7681,-126,38,-48.48
7682,-124,36,-47.69
7683,-122,33,-46.9
7685,-120,30,-46.11
7686,-118,16,-50.3
7687,-116,10,-49.49
7688,-115,-5,-48.68
7690,-113,-25,-47.87
7691,-112,-19,-49.04
7692,-110,-13,-48.21
7693,-109,6,-47.38
7695,-108,25,-46.55
7696,-107,17,-48.71
7697,-106,12,-47.87
7698,-104,16,-47.03
7700,-103,3,-50.15
7701,-103,-23,-49.31
7702,-102,-24,-48.47
7703,-101,-19,-53.57
7705,-100,-11,-52.65
7706,-100,2,-51.73
7707,-99,25,-50.81
7708,-98,35,-49.93
7710,-98,24,-53.01
7711,-98,18,-52.09
7712,-97,16,-51.17
7713,-97,10,-50.25
7715,-97,6,-49.32
7716,-97,-17,-51.36
7717,-97,-35,-50.4
7718,-96,-29,-49.44
7720,-96,-22,-48.48
7721,-95,-19,-48.55
7722,-95,-17,-47.62
7723,-94,13,-46.69
7725,-94,31,-45.76
7726,-93,25,-47.81
7727,-93,19,-46.86
7728,-92,13,-45.91
7730,-92,8,-44.96
7731,-91,2,-41.07
7732,-90,-3,-40.18
7733,-89,-21,-39.29
7735,-89,-40,-38.4
7736,-88,-34,-45.45
7737,-87,-30,-44.5
7738,-86,-11,-43.55
7740,-85,16,-42.6
7741,-84,15,-41.7
7742,-83,16,-40.8
7743,-81,13,-39.9
7745,-80,12,-39
7746,-79,7,-42.07
7747,-78,1,-41.14
7748,-76,-33,-40.21
7750,-75,-46,-39.28
7751,-74,-31,-39.4
7752,-72,-30,-38.52
7753,-71,11,-37.64
7755,-70,29,-36.76
7756,-68,29,-35.88
7757,-67,-25,-35
7758,-65,30,-34.12
7760,-64,-30,-33.24
7761,-63,-18,-34.41
7762,-61,-19,-33.58
7763,-60,-12,-32.75
7765,-59,-7,-31.92
7766,-58,1,-35.09
7767,-58,1,-34.26
7768,-58,5,-33.43
7770,-58,3,-32.6
7771,-58,10,-33.79
7772,-59,12,-32.98
7773,-59,11,-32.17
7775,-60,20,-31.36
7776,-61,15,-33.56
7777,-62,5,-32.76
7778,-63,16,-31.96
7780,-64,10,-31.16
7781,-65,8,-30.43
7782,-67,6,-29.7
7783,-68,2,-28.97
7785,-69,-3,-28.24
7786,-71,-2,-30.51
7787,-72,-1,-29.78
7788,-73,-5,-29.05
7790,-75,-3,-28.32
7791,-76,-5,-28.62
7792,-77,0,-27.92
7793,-78,-3,-27.22
7795,-78,-1,-26.52
7796,-79,1,-26.87
7797,-80,2,-26.22
7798,-81,11,-25.57
7800,-82,41,-24.92
7801,-83,34,-22.35
7802,-85,23,-21.78
7803,-87,24,-21.21
7805,-89,10,-20.64
7806,-90,0,-23.06
7807,-92,-4,-22.48
7808,-94,-19,-21.9
7810,-95,-50,-21.32
7811,-97,-30,-19.8
7812,-99,-27,-19.28
7813,-100,-19,-18.76
7815,-102,16,-18.24
7816,-104,19,-16.75
7817,-105,19,-16.26
7818,-106,19,-15.77
7820,-108,10,-15.28
7821,-109,11,-17.79
7822,-111,5,-17.3
7823,-113,-34,-16.81
7825,-115,-31,-16.36
7826,-117,-22,-7.99
7827,-119,-15,-7.62
7828,-121,51,-7.31
7830,-122,22,-7
7831,-124,27,-6.69
7832,-126,25,-6.38
7833,-127,17,-6.07
7835,-129,6,5.09
7836,-130,-27,5.25
7837,-131,-41,5.41
7838,-131,-36,8.54
7840,-132,-16,8.67
7841,-133,-10,8.77
7842,-133,30,8.87
7843,-134,27,8.97
7845,-134,15,11.05
7846,-135,14,11.12
7847,-136,-11,11.19
7848,-137,-24,11.26
7850,-137,-18,11.33
7851,-138,-16,25.23
7852,-138,-11,25.13
7853,-138,-5,25.03
7855,-138,-9,24.93
7856,-138,-1,33.77
7857,-137,1,33.61
7858,-137,42,33.45
7860,-136,34,33.29
7861,-136,23,39.98
7862,-135,18,39.67
7863,-134,11,39.36
7865,-133,5,39.05
7866,-132,5,47.65
7867,-130,1,47.25
7868,-129,-24,46.85
7870,-127,-23,46.45
7871,-126,-21,58.88
7872,-124,-12,58.31
7873,-122,25,57.74
7875,-121,26,57.17
7876,-119,-13,64.51
7877,-116,27,63.85
7878,-114,-18,63.19
7880,-112,-23,62.53
7881,-110,-14,69.79
7882,-107,-19,69.05
7883,-105,-11,68.31
7885,-102,-14,67.57
7886,-99,-6,74.73
7887,-96,-2,73.89
7888,-93,-9,73.05
7890,-90,-7,72.21
7891,-87,-12,83.21
7892,-83,-2,82.21
7893,-80,-4,81.21
7895,-76,7,80.21
7896,-72,10,87.11
7897,-69,5,86.01
7898,-65,-6,84.91
7900,-62,5,83.81
7901,-58,4,88.62
7902,-54,2,87.43
7903,-50,-10,86.24
7905,-46,-22,85.05
7906,-42,-17,96.73
7907,-37,-12,95.41
7908,-33,-20,94.09
7910,-28,1,92.77
7911,-23,-3,101.32
7912,-19,-8,99.87
7913,-14,14,98.42
7915,-10,22,96.97
7916,-6,25,103.43
7917,-2,27,101.89
7918,1,46,100.35
7920,5,53,98.81
7921,8,32,106.17
7922,12,22,104.53
7923,15,-2,102.89
7925,19,-6,101.25
7926,22,-10,109.53
7927,25,-12,107.81
7928,28,-65,106.09
7930,31,-63,104.37
7931,34,-49,112.52
7932,37,-20,110.67
7933,40,24,108.82
7935,43,35,106.97
7936,46,35,114.04
7937,49,36,112.11
7938,52,27,110.18
7940,56,17,108.25
7941,59,8,113.26
7942,61,3,111.27
7943,64,-25,109.28
7945,67,-33,107.29
7946,69,-14,114.18
7947,72,-13,112.07
7948,74,31,109.96
7950,77,37,107.85
7951,80,37,113.74
7952,83,33,111.63
7953,85,21,109.52
7955,88,9,107.41
7956,91,-2,107.28
7957,94,-12,105.15
7958,97,-44,103.02
7960,99,-42,101
7961,102,-21,106.9
7962,104,-21,104.8
7963,106,22,102.73
7965,108,5,100.66
7966,109,15,99.58
7967,111,16,97.5
7968,112,13,95.42
7970,113,9,102.27
7971,114,-9,100.12
7972,115,-33,97.97
7973,116,-30,97.8
7975,117,-17,95.63
7976,118,1,93.6
7977,119,20,91.57
7978,120,20,89.54
7980,121,20,83.55
7981,122,20,81.65
7982,124,11,79.75
7983,125,4,77.85
7985,126,-1,75.95
7986,128,-3,79.07
7987,129,-3,77.19
7988,130,-32,75.31
7990,130,-46,73.43
7991,131,-29,71.64
7992,132,-17,69.85
7993,132,26,68.06
7995,133,26,66.27
7996,133,23,62.63
7997,134,25,60.99
7998,134,20,59.35
8000,135,17,57.71
8001,135,-25,55.16
8002,136,-38,53.61
8003,136,-18,52.06
8005,136,-21,50.51
8006,136,-12,49.04
8007,136,-3,47.57
8008,136,-5,46.1
8010,136,4,44.63
8011,135,-5,36.31
8012,135,4,34.99
8013,135,-1,33.67
8015,134,-2,32.35
8016,134,9,34.12
8017,134,7,32.89
8018,134,2,31.66
8020,134,3,30.43
8021,134,1,28.29
8022,134,4,27.15
8023,135,-1,26.01
8025,135,-10,24.87
8026,135,-1,20.82
8027,135,5,19.77
8028,135,-10,18.72
8030,135,4,17.67
8031,135,3,13.78
8032,134,4,12.89
8033,134,7,12
8035,134,5,11.11
8036,134,-5,9.33
8037,133,3,8.55
8038,133,31,7.77
8040,132,31,6.99
8041,132,20,7.28
8042,131,16,6.57
8043,131,6,5.86
8045,130,4,5.15
8046,130,0,-1.41
8047,130,-4,-1.97
8048,130,-20,-2.53
8050,131,-50,-3.09
8051,131,-34,-8.5
8052,132,-15,-8.91
8053,133,21,-9.32
8055,133,21,-9.73
8056,134,21,-14
8057,135,23,-14.27
8058,135,21,-14.54
8060,135,11,-14.81
8061,136,4,-17.96
8062,136,0,-18.11
8063,136,-46,-18.26
8065,136,-41,-18.41
8066,136,-28,-21.46
8067,136,-21,-21.51
8068,135,23,-21.56
8070,134,26,-21.61
8071,134,-10,-23.55
8072,133,-14,-23.49
8073,132,30,-23.43
8075,131,24,-23.37
8076,131,19,-24.22
8077,130,11,-24.07
8078,130,-41,-23.92
8080,130,-27,-23.77
8081,130,-24,-30.53
8082,130,-15,-30.29
8083,130,27,-30.05
8085,130,30,-29.81
8086,130,23,-26.52
8087,130,21,-26.23
8088,130,15,-25.94
8090,130,12,-30.6
8091,129,-27,-30.25
8092,129,-46,-29.9
8093,129,-25,-28.56
8095,129,-24,-28.13
8096,129,-3,-27.7
8097,129,35,-27.27
8098,129,32,-26.82
8100,128,30,-33.3
8101,128,24,-32.78
8102,128,15,-32.26
8103,127,9,-31.74
8105,127,4,-31.26
